* Measurement data measured by REW V5,19
* Source: Input device not selected, no input selected, R, volume: no control
* Format: 128k Log Swept Sine, 1 sweep at -12,0 dBFS  With no timing reference
* Dated: 22.09.2021 16:35:32
* REW Settings:
*  C-weighting compensation: On
*  Target level: 75.0 dB
* Note: ; 
* Measurement: AirDots S L
* Smoothing: 1/24 octave
* Frequency Step: 1/48 octave
* Start Frequency: 20.3 Hz
*
* Freq(Hz)	SPL(dB)	Phase(degrees)
20.291	76.575	174.365
20.586	76.657	173.900
20.885	76.837	173.053
21.189	77.030	172.255
21.497	77.232	171.491
21.810	77.438	170.655
22.127	77.638	169.691
22.449	77.821	168.621
22.776	77.988	167.511
23.107	78.148	166.422
23.443	78.308	165.369
23.784	78.470	164.340
24.130	78.626	163.328
24.481	78.773	162.347
24.837	78.919	161.408
25.198	79.078	160.477
25.565	79.255	159.471
25.937	79.438	158.317
26.314	79.604	157.035
26.697	79.740	155.759
27.085	79.856	154.649
27.479	79.981	153.745
27.879	80.148	152.910
28.284	80.359	151.912
28.696	80.581	150.627
29.113	80.770	149.154
29.537	80.911	147.734
29.966	81.029	146.538
30.402	81.163	145.531
30.844	81.324	144.570
31.293	81.491	143.588
31.748	81.645	142.663
32.210	81.806	141.862
32.678	81.999	141.066
33.154	82.210	140.047
33.636	82.395	138.719
34.125	82.525	137.286
34.621	82.621	136.018
35.125	82.727	134.977
35.636	82.855	133.984
36.154	82.990	132.908
36.680	83.126	131.822
37.214	83.283	130.813
37.755	83.470	129.771
38.304	83.663	128.533
38.861	83.833	127.159
39.427	83.974	125.886
40.000	84.108	124.837
40.582	84.252	123.903
41.172	84.402	122.914
41.771	84.553	121.826
42.379	84.702	120.691
42.995	84.848	119.505
43.620	84.984	118.135
44.255	85.089	116.541
44.898	85.177	115.022
45.552	85.323	113.709
46.214	85.544	112.180
46.886	85.745	110.353
47.568	85.933	109.002
48.260	86.284	107.855
48.962	86.702	105.140
49.674	86.819	101.044
50.397	86.567	98.628
51.130	86.362	99.210
51.874	86.486	100.360
52.628	86.697	100.266
53.394	86.831	99.605
54.170	86.954	98.845
54.958	87.073	97.805
55.758	87.167	96.571
56.569	87.235	95.213
57.391	87.277	93.920
58.226	87.339	92.807
59.073	87.445	91.535
59.932	87.555	89.997
60.804	87.657	88.398
61.688	87.757	86.827
62.586	87.861	85.344
63.496	87.971	83.919
64.420	88.073	82.576
65.357	88.168	81.253
66.307	88.220	79.791
67.272	88.201	78.491
68.250	88.170	77.536
69.243	88.161	76.684
70.250	88.183	75.976
71.272	88.302	75.327
72.309	88.519	74.011
73.360	88.667	71.665
74.427	88.603	69.571
75.510	88.542	69.139
76.608	88.720	68.511
77.723	88.809	66.269
78.853	88.673	64.756
80.000	88.657	64.801
81.164	88.815	64.409
82.344	88.878	63.415
83.542	88.856	62.790
84.757	88.836	62.180
85.990	88.794	61.001
87.241	88.715	59.441
88.510	88.694	57.865
89.797	88.812	56.254
91.103	88.984	54.601
92.428	89.137	53.753
93.773	89.305	53.509
95.137	89.402	53.052
96.520	89.386	52.094
97.924	89.275	50.466
99.349	89.092	48.751
100.794	89.018	47.787
102.260	89.122	46.859
103.747	89.233	45.894
105.256	89.275	45.186
106.787	89.254	44.588
108.340	89.203	43.820
109.916	89.161	42.784
111.515	89.137	41.673
113.137	89.134	40.808
114.783	89.149	40.119
116.452	89.147	39.372
118.146	89.111	38.501
119.865	89.051	37.601
121.608	89.004	36.810
123.377	88.985	36.120
125.171	88.975	35.460
126.992	88.946	34.789
128.839	88.889	34.075
130.713	88.814	33.344
132.615	88.745	32.653
134.543	88.693	32.071
136.500	88.662	31.520
138.486	88.633	30.890
140.500	88.597	30.264
142.544	88.557	29.702
144.617	88.512	29.171
146.721	88.452	28.612
148.855	88.389	28.112
151.020	88.372	27.673
153.217	88.400	27.132
155.445	88.424	26.597
157.706	88.417	26.167
160.000	88.387	25.752
162.327	88.349	25.267
164.688	88.306	24.808
167.084	88.257	24.439
169.514	88.193	24.097
171.980	88.110	23.727
174.481	88.023	23.338
177.019	87.942	22.990
179.594	87.874	22.699
182.206	87.818	22.437
184.856	87.769	22.199
187.545	87.723	21.985
190.273	87.673	21.763
193.041	87.628	21.564
195.849	87.601	21.481
198.697	87.579	21.468
201.587	87.527	21.287
204.520	87.448	21.038
207.494	87.385	20.863
210.512	87.329	20.777
213.574	87.275	20.706
216.681	87.227	20.606
219.833	87.185	20.523
223.030	87.146	20.465
226.274	87.104	20.428
229.565	87.056	20.394
232.905	87.013	20.352
236.292	86.972	20.349
239.729	86.929	20.389
243.216	86.870	20.490
246.754	86.764	20.653
250.343	86.683	20.797
253.984	86.705	20.776
257.678	86.725	20.774
261.426	86.701	20.849
265.229	86.670	20.957
269.087	86.636	21.118
273.001	86.597	21.275
276.972	86.562	21.420
281.000	86.531	21.608
285.088	86.502	21.851
289.234	86.467	22.073
293.441	86.425	22.202
297.710	86.379	22.250
302.040	86.347	22.588
306.433	86.338	23.180
310.890	86.334	23.657
315.412	86.332	24.023
320.000	86.330	24.319
324.655	86.332	24.564
329.377	86.336	24.780
334.168	86.338	24.958
339.028	86.339	25.142
343.959	86.346	25.399
348.962	86.355	25.686
354.038	86.340	25.821
359.188	86.308	25.933
364.412	86.279	26.123
369.713	86.264	26.374
375.090	86.253	26.676
380.546	86.242	26.987
386.081	86.233	27.307
391.697	86.233	27.602
397.395	86.247	27.876
403.175	86.233	28.269
409.039	86.201	28.737
414.989	86.187	29.166
421.025	86.180	29.560
427.149	86.177	29.966
433.362	86.174	30.411
439.665	86.158	30.930
446.060	86.129	31.585
452.548	86.138	32.073
459.131	86.185	32.332
465.809	86.199	32.692
472.584	86.195	33.134
479.458	86.201	33.592
486.432	86.229	34.078
493.507	86.264	34.632
500.686	86.294	35.185
507.968	86.322	35.628
515.357	86.352	36.082
522.853	86.392	36.582
530.458	86.451	37.085
538.174	86.517	37.601
546.002	86.574	38.146
553.943	86.622	38.601
562.001	86.679	38.939
570.175	86.750	39.193
578.469	86.831	39.237
586.883	86.898	38.844
595.419	86.883	37.870
604.080	86.678	36.748
612.866	86.252	37.083
621.780	85.878	39.988
630.824	85.875	43.777
640.000	86.121	46.304
649.309	86.375	47.414
658.753	86.566	47.932
668.335	86.691	48.349
678.056	86.771	48.814
687.919	86.833	49.326
697.925	86.889	49.893
708.076	86.948	50.581
718.376	87.016	51.337
728.825	87.093	52.089
739.426	87.183	52.781
750.181	87.281	53.493
761.093	87.375	54.402
772.163	87.464	55.313
783.394	87.551	56.190
794.789	87.644	57.075
806.349	87.751	57.912
818.078	87.860	58.705
829.977	87.962	59.525
842.050	88.062	60.382
854.297	88.170	61.268
866.724	88.291	62.156
879.330	88.434	63.040
892.120	88.589	63.929
905.097	88.747	64.811
918.262	88.903	65.668
931.618	89.049	66.493
945.169	89.193	67.293
958.917	89.352	68.106
972.864	89.524	68.900
987.015	89.703	69.635
1001.371	89.890	70.319
1015.937	90.087	70.949
1030.714	90.289	71.516
1045.706	90.493	72.027
1060.916	90.702	72.503
1076.347	90.916	72.937
1092.003	91.129	73.318
1107.887	91.345	73.662
1124.001	91.562	73.974
1140.350	91.776	74.239
1156.937	91.988	74.457
1173.765	92.203	74.646
1190.838	92.417	74.805
1208.159	92.630	74.937
1225.732	92.843	75.057
1243.561	93.059	75.162
1261.649	93.279	75.250
1280.000	93.505	75.313
1298.618	93.737	75.374
1317.507	93.968	75.460
1336.670	94.191	75.558
1356.113	94.413	75.655
1375.838	94.639	75.747
1395.850	94.871	75.836
1416.153	95.110	75.913
1436.751	95.356	75.981
1457.649	95.610	76.042
1478.851	95.872	76.094
1500.362	96.143	76.124
1522.185	96.427	76.117
1544.326	96.726	76.064
1566.789	97.041	75.979
1589.578	97.370	75.852
1612.699	97.714	75.648
1636.156	98.078	75.356
1659.955	98.468	74.992
1684.099	98.892	74.568
1708.595	99.342	74.076
1733.447	99.808	73.498
1758.661	100.287	72.816
1784.241	100.790	71.979
1810.193	101.333	70.912
1836.523	101.919	69.509
1863.236	102.546	67.660
1890.338	103.206	65.256
1917.833	103.887	62.168
1945.729	104.566	58.260
1974.030	105.213	53.417
2002.743	105.783	47.604
2031.873	106.234	40.944
2061.428	106.550	33.662
2091.412	106.721	25.887
2121.832	106.719	17.713
2152.695	106.509	9.470
2184.007	106.089	1.675
2215.774	105.495	-5.253
2248.003	104.786	-11.098
2280.701	104.016	-15.840
2313.874	103.226	-19.592
2347.530	102.441	-22.516
2381.676	101.673	-24.763
2416.318	100.924	-26.452
2451.464	100.198	-27.684
2487.122	99.506	-28.541
2523.298	98.858	-29.090
2560.000	98.250	-29.385
2597.236	97.668	-29.462
2635.014	97.105	-29.355
2673.341	96.566	-29.085
2712.226	96.058	-28.670
2751.676	95.581	-28.150
2791.700	95.133	-27.560
2832.306	94.706	-26.898
2873.503	94.298	-26.156
2915.299	93.910	-25.357
2957.703	93.538	-24.503
3000.724	93.178	-23.570
3044.370	92.829	-22.571
3088.652	92.487	-21.547
3133.577	92.151	-20.517
3179.156	91.831	-19.462
3225.398	91.532	-18.372
3272.312	91.252	-17.237
3319.909	90.988	-16.047
3368.198	90.740	-14.830
3417.190	90.516	-13.580
3466.894	90.308	-12.302
3517.321	90.098	-11.005
3568.482	89.885	-9.701
3620.387	89.674	-8.391
3673.046	89.467	-7.045
3726.472	89.269	-5.666
3780.675	89.082	-4.263
3835.666	88.913	-2.832
3891.457	88.768	-1.379
3948.060	88.647	0.092
4005.486	88.535	1.588
4063.747	88.420	3.113
4122.855	88.291	4.651
4182.824	88.142	6.209
4243.664	87.979	7.801
4305.390	87.811	9.409
4368.013	87.647	11.028
4431.547	87.496	12.678
4496.005	87.367	14.360
4561.401	87.265	16.065
4627.749	87.179	17.792
4695.061	87.098	19.556
4763.352	87.032	21.378
4832.637	86.983	23.252
4902.929	86.942	25.165
4974.244	86.914	27.103
5046.596	86.916	29.035
5120.000	86.958	30.956
5194.472	87.032	32.886
5270.027	87.115	34.814
5346.682	87.198	36.751
5424.451	87.302	38.746
5503.352	87.442	40.697
5583.399	87.611	42.503
5664.612	87.783	44.163
5747.006	87.945	45.717
5830.598	88.118	47.209
5915.406	88.320	48.658
6001.447	88.556	50.095
6088.740	88.817	51.526
6177.303	89.095	52.898
6267.154	89.402	54.192
6358.312	89.763	55.396
6450.796	90.188	56.396
6544.625	90.678	56.983
6639.818	91.209	56.997
6736.397	91.753	56.419
6834.380	92.306	55.278
6933.789	92.874	53.489
7034.643	93.440	50.934
7136.964	93.964	47.536
7240.773	94.408	43.274
7346.093	94.739	38.265
7452.944	94.932	32.768
7561.350	94.989	27.096
7671.332	94.923	21.512
7782.915	94.734	16.208
7896.120	94.414	11.456
8010.971	93.984	7.559
8127.493	93.468	4.656
8245.711	92.890	2.720
8365.647	92.301	1.576
8487.328	91.749	1.019
8610.779	91.270	0.922
8736.026	90.875	1.136
8863.095	90.559	1.464
8992.011	90.320	1.808
9122.803	90.164	2.142
9255.497	90.103	2.323
9390.121	90.146	2.145
9526.704	90.291	1.490
9665.273	90.524	0.191
9805.857	90.835	-2.111
9948.487	91.194	-5.861
10093.191	91.529	-11.400
10240.000	91.738	-18.931
10388.944	91.684	-28.254
10540.055	91.233	-38.409
10693.363	90.337	-47.990
10848.902	89.065	-55.895
11006.703	87.546	-61.629
11166.799	85.917	-65.200
11329.224	84.288	-66.958
11494.012	82.738	-67.385
11661.195	81.286	-66.811
11830.812	79.913	-65.423
12002.895	78.624	-63.456
12177.480	77.428	-61.081
12354.606	76.304	-58.312
12534.309	75.234	-55.226
12716.624	74.218	-51.943
12901.592	73.255	-48.486
13089.250	72.358	-44.804
13279.637	71.582	-40.983
13472.794	71.011	-37.180
13668.760	70.693	-33.354
13867.577	70.569	-29.475
14069.285	70.511	-25.543
14273.928	70.396	-21.525
14481.547	70.181	-17.411
14692.186	69.893	-13.282
14905.889	69.588	-9.316
15122.700	69.343	-5.485
15342.664	69.206	-1.671
15565.829	69.217	2.144
15792.239	69.426	6.084
16021.942	69.829	10.058
16254.986	70.280	13.748
16491.422	70.759	17.559
16731.295	71.388	21.357
16974.656	72.283	24.532
17221.559	73.569	26.387
17472.053	75.295	25.725
17726.189	77.276	20.371
17984.021	78.979	7.169
18245.605	79.685	-14.454
18510.994	78.934	-37.682
18780.242	76.866	-53.598
19053.408	74.111	-60.083
19330.547	71.298	-59.953
19611.715	68.698	-56.127
19896.975	66.642	-51.843
