* Measurement data measured by REW V5,19
* Source: Input device not selected, no input selected, R, volume: no control
* Format: 256k Log Swept Sine, 1 sweep at -12,0 dBFS  With no timing reference
* Dated: 16.09.2021 18:13:04
* REW Settings:
*  C-weighting compensation: On
*  Target level: 75.0 dB
* Note: ; 
* Measurement: Arena EQ R
* Smoothing: 1/24 octave
* Frequency Step: 1/48 octave
* Start Frequency: 20.3 Hz
*
* Freq(Hz)	SPL(dB)	Phase(degrees)
20.291	101.540	161.517
20.586	101.525	160.904
20.885	101.492	159.739
21.189	101.460	158.519
21.497	101.428	157.308
21.810	101.388	156.082
22.127	101.339	154.826
22.449	101.282	153.537
22.776	101.223	152.225
23.107	101.169	150.893
23.443	101.124	149.542
23.784	101.085	148.172
24.130	101.045	146.786
24.481	100.999	145.390
24.837	100.949	143.992
25.198	100.900	142.598
25.565	100.856	141.215
25.937	100.817	139.847
26.314	100.780	138.494
26.697	100.740	137.154
27.085	100.692	135.826
27.479	100.636	134.507
27.879	100.579	133.195
28.284	100.527	131.884
28.696	100.481	130.570
29.113	100.431	129.252
29.537	100.370	127.928
29.966	100.299	126.595
30.402	100.229	125.249
30.844	100.170	123.884
31.293	100.117	122.499
31.748	100.059	121.095
32.210	99.999	119.682
32.678	99.943	118.265
33.154	99.891	116.845
33.636	99.837	115.419
34.125	99.781	113.992
34.621	99.726	112.573
35.125	99.677	111.173
35.636	99.628	109.793
36.154	99.573	108.422
36.680	99.518	107.049
37.214	99.467	105.678
37.755	99.413	104.318
38.304	99.353	102.969
38.861	99.295	101.614
39.427	99.240	100.240
40.000	99.183	98.847
40.582	99.118	97.448
41.172	99.051	96.055
41.771	98.998	94.665
42.379	98.960	93.257
42.995	98.919	91.825
43.620	98.858	90.406
44.255	98.785	89.050
44.898	98.722	87.744
45.552	98.679	86.440
46.214	98.646	85.128
46.886	98.607	83.817
47.568	98.547	82.492
48.260	98.463	81.193
48.962	98.377	79.994
49.674	98.323	78.815
50.397	98.296	77.463
51.130	98.252	75.945
51.874	98.173	74.473
52.628	98.078	73.122
53.394	97.990	71.791
54.170	97.917	70.441
54.958	97.859	69.118
55.758	97.811	67.835
56.569	97.768	66.559
57.391	97.719	65.268
58.226	97.654	64.002
59.073	97.577	62.792
59.932	97.497	61.612
60.804	97.418	60.425
61.688	97.336	59.212
62.586	97.252	57.985
63.496	97.175	56.772
64.420	97.107	55.561
65.357	97.043	54.342
66.307	96.979	53.198
67.272	96.934	52.185
68.250	96.911	51.193
69.243	96.880	50.163
70.250	96.811	49.360
71.272	96.746	48.984
72.309	96.729	48.710
73.360	96.750	48.068
74.427	96.754	46.745
75.510	96.666	44.875
76.608	96.474	43.101
77.723	96.261	41.757
78.853	96.091	40.696
80.000	95.974	39.753
81.164	95.882	38.854
82.344	95.796	37.989
83.542	95.717	37.091
84.757	95.639	36.175
85.990	95.573	35.264
87.241	95.514	34.259
88.510	95.444	33.282
89.797	95.368	32.470
91.103	95.296	31.812
92.428	95.229	31.236
93.773	95.165	30.615
95.137	95.092	29.902
96.520	95.016	29.134
97.924	94.933	28.300
99.349	94.846	27.541
100.794	94.770	26.840
102.260	94.700	26.145
103.747	94.632	25.467
105.256	94.564	24.790
106.787	94.496	24.134
108.340	94.427	23.484
109.916	94.354	22.853
111.515	94.280	22.246
113.137	94.206	21.653
114.783	94.134	21.073
116.452	94.062	20.490
118.146	93.984	19.911
119.865	93.896	19.325
121.608	93.801	18.759
123.377	93.716	18.228
125.171	93.642	17.725
126.992	93.570	17.261
128.839	93.483	16.823
130.713	93.377	16.404
132.615	93.272	15.983
134.543	93.178	15.551
136.500	93.096	15.115
138.486	93.020	14.681
140.500	92.944	14.265
142.544	92.870	13.854
144.617	92.798	13.439
146.721	92.736	13.042
148.855	92.683	12.651
151.020	92.626	12.319
153.217	92.575	12.092
155.445	92.540	11.859
157.706	92.502	11.583
160.000	92.446	11.311
162.327	92.379	11.077
164.688	92.304	10.870
167.084	92.226	10.682
169.514	92.139	10.500
171.980	92.034	10.341
174.481	91.918	10.212
177.019	91.806	10.096
179.594	91.709	9.996
182.206	91.629	9.934
184.856	91.555	9.911
187.545	91.482	9.891
190.273	91.415	9.860
193.041	91.352	9.867
195.849	91.287	9.950
198.697	91.217	10.067
201.587	91.146	10.193
204.520	91.083	10.365
207.494	91.025	10.609
210.512	90.967	10.895
213.574	90.917	11.258
216.681	90.882	11.721
219.833	90.862	12.281
223.030	90.871	12.844
226.274	90.914	13.293
229.565	90.978	13.549
232.905	91.043	13.586
236.292	91.094	13.467
239.729	91.125	13.275
243.216	91.139	13.054
246.754	91.147	12.824
250.343	91.147	12.650
253.984	91.138	12.595
257.678	91.130	12.565
261.426	91.125	12.520
265.229	91.124	12.478
269.087	91.124	12.434
273.001	91.127	12.382
276.972	91.129	12.317
281.000	91.133	12.246
285.088	91.135	12.171
289.234	91.138	12.094
293.441	91.139	12.010
297.710	91.138	11.913
302.040	91.137	11.822
306.433	91.137	11.741
310.890	91.137	11.658
315.412	91.135	11.575
320.000	91.135	11.489
324.655	91.136	11.392
329.377	91.136	11.283
334.168	91.135	11.171
339.028	91.133	11.057
343.959	91.131	10.946
348.962	91.127	10.842
354.038	91.115	10.723
359.188	91.099	10.603
364.412	91.086	10.497
369.713	91.073	10.402
375.090	91.059	10.314
380.546	91.045	10.236
386.081	91.030	10.167
391.697	91.016	10.098
397.395	90.999	10.031
403.175	90.980	9.979
409.039	90.961	9.938
414.989	90.943	9.897
421.025	90.924	9.860
427.149	90.903	9.831
433.362	90.882	9.811
439.665	90.861	9.801
446.060	90.848	9.801
452.548	90.841	9.817
459.131	90.826	9.850
465.809	90.793	9.898
472.584	90.751	9.959
479.458	90.723	10.035
486.432	90.711	10.137
493.507	90.711	10.278
500.686	90.709	10.427
507.968	90.701	10.535
515.357	90.693	10.598
522.853	90.687	10.582
530.458	90.666	10.551
538.174	90.620	10.757
546.002	90.579	11.269
553.943	90.573	11.829
562.001	90.591	12.261
570.175	90.613	12.554
578.469	90.629	12.741
586.883	90.633	12.875
595.419	90.628	13.006
604.080	90.622	13.171
612.866	90.613	13.370
621.780	90.600	13.595
630.824	90.584	13.849
640.000	90.567	14.136
649.309	90.554	14.458
658.753	90.545	14.817
668.335	90.540	15.200
678.056	90.538	15.603
687.919	90.540	16.029
697.925	90.545	16.470
708.076	90.557	16.901
718.376	90.574	17.332
728.825	90.601	17.772
739.426	90.640	18.214
750.181	90.687	18.657
761.093	90.734	19.103
772.163	90.776	19.551
783.394	90.818	19.995
794.789	90.865	20.438
806.349	90.915	20.885
818.078	90.958	21.342
829.977	90.994	21.802
842.050	91.028	22.258
854.297	91.070	22.718
866.724	91.129	23.204
879.330	91.203	23.701
892.120	91.288	24.196
905.097	91.369	24.676
918.262	91.440	25.145
931.618	91.502	25.607
945.169	91.565	26.056
958.917	91.635	26.490
972.864	91.717	26.903
987.015	91.811	27.286
1001.371	91.913	27.645
1015.937	92.020	27.975
1030.714	92.131	28.272
1045.706	92.245	28.529
1060.916	92.362	28.728
1076.347	92.480	28.878
1092.003	92.598	28.992
1107.887	92.716	29.073
1124.001	92.833	29.118
1140.350	92.949	29.124
1156.937	93.063	29.104
1173.765	93.176	29.057
1190.838	93.286	28.980
1208.159	93.393	28.885
1225.732	93.499	28.774
1243.561	93.605	28.646
1261.649	93.715	28.505
1280.000	93.831	28.351
1298.618	93.948	28.188
1317.507	94.061	28.023
1336.670	94.163	27.858
1356.113	94.257	27.687
1375.838	94.349	27.508
1395.850	94.440	27.321
1416.153	94.530	27.136
1436.751	94.620	26.952
1457.649	94.710	26.761
1478.851	94.800	26.561
1500.362	94.890	26.353
1522.185	94.980	26.143
1544.326	95.071	25.927
1566.789	95.163	25.699
1589.578	95.256	25.461
1612.699	95.350	25.213
1636.156	95.449	24.955
1659.955	95.564	24.681
1684.099	95.696	24.388
1708.595	95.833	24.077
1733.447	95.963	23.750
1758.661	96.076	23.407
1784.241	96.177	23.044
1810.193	96.273	22.661
1836.523	96.368	22.257
1863.236	96.462	21.835
1890.338	96.555	21.391
1917.833	96.647	20.924
1945.729	96.737	20.435
1974.030	96.826	19.928
2002.743	96.914	19.401
2031.873	97.000	18.852
2061.428	97.084	18.283
2091.412	97.166	17.697
2121.832	97.245	17.094
2152.695	97.321	16.476
2184.007	97.394	15.844
2215.774	97.466	15.201
2248.003	97.540	14.547
2280.701	97.620	13.882
2313.874	97.703	13.204
2347.530	97.783	12.518
2381.676	97.854	11.824
2416.318	97.911	11.118
2451.464	97.956	10.399
2487.122	97.999	9.664
2523.298	98.052	8.909
2560.000	98.107	8.130
2597.236	98.150	7.322
2635.014	98.181	6.483
2673.341	98.204	5.610
2712.226	98.227	4.700
2751.676	98.248	3.755
2791.700	98.263	2.783
2832.306	98.265	1.794
2873.503	98.252	0.805
2915.299	98.223	-0.161
2957.703	98.178	-1.078
3000.724	98.115	-1.915
3044.370	98.033	-2.645
3088.652	97.930	-3.240
3133.577	97.816	-3.677
3179.156	97.708	-3.948
3225.398	97.616	-4.057
3272.312	97.545	-4.019
3319.909	97.500	-3.873
3368.198	97.486	-3.671
3417.190	97.512	-3.468
3466.894	97.568	-3.315
3517.321	97.631	-3.256
3568.482	97.693	-3.317
3620.387	97.750	-3.493
3673.046	97.799	-3.740
3726.472	97.840	-3.985
3780.675	97.882	-4.158
3835.666	97.947	-4.233
3891.457	98.063	-4.265
3948.060	98.234	-4.390
4005.486	98.438	-4.761
4063.747	98.647	-5.489
4122.855	98.836	-6.630
4182.824	98.982	-8.196
4243.664	99.073	-10.176
4305.390	99.100	-12.552
4368.013	99.050	-15.284
4431.547	98.904	-18.267
4496.005	98.653	-21.306
4561.401	98.296	-24.137
4627.749	97.826	-26.465
4695.061	97.250	-28.013
4763.352	96.610	-28.583
4832.637	95.952	-28.086
4902.929	95.316	-26.536
4974.244	94.750	-24.024
5046.596	94.306	-20.721
5120.000	94.023	-16.840
5194.472	93.915	-12.617
5270.027	93.975	-8.301
5346.682	94.200	-4.167
5424.451	94.592	-0.529
5503.352	95.139	2.281
5583.399	95.800	3.933
5664.612	96.502	4.144
5747.006	97.158	2.745
5830.598	97.699	-0.221
5915.406	98.055	-4.421
6001.447	98.171	-9.223
6088.740	98.027	-13.859
6177.303	97.652	-17.679
6267.154	97.120	-20.319
6358.312	96.525	-21.705
6450.796	95.938	-21.954
6544.625	95.404	-21.257
6639.818	94.949	-19.809
6736.397	94.590	-17.795
6834.380	94.339	-15.386
6933.789	94.209	-12.746
7034.643	94.209	-10.036
7136.964	94.343	-7.430
7240.773	94.608	-5.122
7346.093	95.013	-3.332
7452.944	95.565	-2.336
7561.350	96.258	-2.488
7671.332	97.041	-4.221
7782.915	97.812	-7.990
7896.120	98.426	-14.039
8010.971	98.714	-22.015
8127.493	98.541	-30.783
8245.711	97.874	-38.791
8365.647	96.816	-44.827
8487.328	95.528	-48.450
8610.779	94.169	-49.848
8736.026	92.844	-49.454
8863.095	91.600	-47.695
8992.011	90.460	-44.920
9122.803	89.437	-41.400
9255.497	88.531	-37.330
9390.121	87.742	-32.804
9526.704	87.070	-27.872
9665.273	86.516	-22.593
9805.857	86.083	-17.053
9948.487	85.791	-11.378
10093.191	85.673	-5.774
10240.000	85.753	-0.552
10388.944	86.012	3.849
10540.055	86.352	6.945
10693.363	86.643	8.514
10848.902	86.770	8.924
11006.703	86.693	9.073
11166.799	86.466	9.855
11329.224	86.207	11.658
11494.012	86.015	14.323
11661.195	85.920	17.441
11830.812	85.921	20.637
12002.895	86.018	23.639
12177.480	86.189	26.173
12354.606	86.375	27.993
12534.309	86.501	29.053
12716.624	86.509	29.599
12901.592	86.382	30.073
13089.250	86.154	30.935
13279.637	85.922	32.526
13472.794	85.834	34.978
13668.760	86.040	38.179
13867.577	86.557	41.798
14069.285	87.293	45.318
14273.928	88.141	47.951
14481.547	89.018	48.553
14692.186	89.782	46.019
14905.889	90.227	40.276
15122.700	90.234	32.933
15342.664	89.918	25.988
15565.829	89.511	19.865
15792.239	89.081	14.061
16021.942	88.543	8.891
16254.986	87.886	5.037
16491.422	87.239	2.053
16731.295	86.664	-1.402
16974.656	86.098	-6.203
17221.559	85.448	-12.384
17472.053	84.624	-19.635
17726.189	83.538	-27.453
17984.021	82.124	-34.861
18245.605	80.381	-40.490
18510.994	78.426	-42.929
18780.242	76.580	-41.246
19053.408	75.592	-37.332
19330.547	75.776	-37.767
19611.715	75.930	-46.606
19896.975	75.478	-56.362
