* Measurement data measured by REW V5,19
* Source: Input device not selected, no input selected, R, volume: no control
* Format: 256k Log Swept Sine, 1 sweep at -12,0 dBFS  With no timing reference
* Dated: 16.09.2021 18:12:18
* REW Settings:
*  C-weighting compensation: On
*  Target level: 75.0 dB
* Note: ; 
* Measurement: Arena EQ L
* Smoothing: 1/24 octave
* Frequency Step: 1/48 octave
* Start Frequency: 20.3 Hz
*
* Freq(Hz)	SPL(dB)	Phase(degrees)
20.291	101.297	163.767
20.586	101.283	163.134
20.885	101.255	161.933
21.189	101.229	160.674
21.497	101.202	159.424
21.810	101.168	158.162
22.127	101.124	156.868
22.449	101.073	155.541
22.776	101.019	154.191
23.107	100.969	152.825
23.443	100.927	151.452
23.784	100.890	150.084
24.130	100.854	148.725
24.481	100.817	147.369
24.837	100.780	146.002
25.198	100.747	144.609
25.565	100.719	143.186
25.937	100.691	141.746
26.314	100.659	140.317
26.697	100.618	138.921
27.085	100.569	137.566
27.479	100.514	136.239
27.879	100.460	134.915
28.284	100.414	133.577
28.696	100.372	132.222
29.113	100.325	130.863
29.537	100.267	129.505
29.966	100.202	128.141
30.402	100.140	126.753
30.844	100.088	125.335
31.293	100.040	123.895
31.748	99.986	122.452
32.210	99.931	121.018
32.678	99.882	119.589
33.154	99.837	118.154
33.636	99.790	116.712
34.125	99.738	115.275
34.621	99.689	113.854
35.125	99.646	112.448
35.636	99.603	111.049
36.154	99.551	109.651
36.680	99.499	108.253
37.214	99.451	106.857
37.755	99.401	105.463
38.304	99.346	104.067
38.861	99.290	102.665
39.427	99.239	101.255
40.000	99.186	99.839
40.582	99.129	98.419
41.172	99.070	96.997
41.771	99.023	95.576
42.379	98.987	94.158
42.995	98.948	92.751
43.620	98.895	91.359
44.255	98.832	89.983
44.898	98.773	88.619
45.552	98.729	87.247
46.214	98.693	85.863
46.886	98.651	84.492
47.568	98.596	83.119
48.260	98.529	81.673
48.962	98.446	80.174
49.674	98.358	78.785
50.397	98.296	77.555
51.130	98.263	76.313
51.874	98.225	74.961
52.628	98.163	73.596
53.394	98.094	72.274
54.170	98.036	70.960
54.958	97.988	69.666
55.758	97.943	68.415
56.569	97.896	67.165
57.391	97.839	65.905
58.226	97.770	64.655
59.073	97.692	63.406
59.932	97.613	62.145
60.804	97.536	60.871
61.688	97.460	59.591
62.586	97.386	58.352
63.496	97.324	57.188
64.420	97.274	56.047
65.357	97.223	54.888
66.307	97.164	53.709
67.272	97.092	52.528
68.250	97.013	51.419
69.243	96.948	50.367
70.250	96.895	49.223
71.272	96.833	48.057
72.309	96.774	46.977
73.360	96.716	45.864
74.427	96.633	44.793
75.510	96.539	43.924
76.608	96.461	43.070
77.723	96.372	42.053
78.853	96.266	41.081
80.000	96.185	40.154
81.164	96.102	39.107
82.344	95.998	38.159
83.542	95.914	37.311
84.757	95.843	36.422
85.990	95.772	35.546
87.241	95.703	34.705
88.510	95.640	33.865
89.797	95.576	32.989
91.103	95.505	32.146
92.428	95.435	31.381
93.773	95.370	30.627
95.137	95.303	29.874
96.520	95.236	29.126
97.924	95.171	28.360
99.349	95.104	27.590
100.794	95.028	26.852
102.260	94.950	26.205
103.747	94.879	25.593
105.256	94.811	24.945
106.787	94.738	24.279
108.340	94.666	23.650
109.916	94.598	23.044
111.515	94.532	22.454
113.137	94.467	21.878
114.783	94.400	21.294
116.452	94.329	20.719
118.146	94.252	20.161
119.865	94.166	19.621
121.608	94.080	19.092
123.377	94.004	18.570
125.171	93.936	18.049
126.992	93.865	17.544
128.839	93.777	17.055
130.713	93.670	16.580
132.615	93.565	16.115
134.543	93.473	15.657
136.500	93.393	15.214
138.486	93.321	14.789
140.500	93.250	14.380
142.544	93.177	13.994
144.617	93.107	13.612
146.721	93.042	13.206
148.855	92.984	12.780
151.020	92.924	12.438
153.217	92.880	12.232
155.445	92.854	12.036
157.706	92.823	11.798
160.000	92.774	11.547
162.327	92.713	11.316
164.688	92.647	11.118
167.084	92.578	10.937
169.514	92.501	10.751
171.980	92.409	10.570
174.481	92.305	10.409
177.019	92.204	10.266
179.594	92.118	10.127
182.206	92.046	10.003
184.856	91.982	9.901
187.545	91.920	9.812
190.273	91.860	9.736
193.041	91.804	9.689
195.849	91.751	9.660
198.697	91.697	9.642
201.587	91.641	9.667
204.520	91.588	9.732
207.494	91.539	9.799
210.512	91.493	9.865
213.574	91.450	9.940
216.681	91.412	10.035
219.833	91.377	10.138
223.030	91.345	10.241
226.274	91.314	10.348
229.565	91.286	10.460
232.905	91.262	10.573
236.292	91.239	10.686
239.729	91.217	10.805
243.216	91.197	10.943
246.754	91.174	11.104
250.343	91.155	11.247
253.984	91.151	11.330
257.678	91.149	11.412
261.426	91.143	11.511
265.229	91.137	11.611
269.087	91.132	11.714
273.001	91.126	11.817
276.972	91.120	11.924
281.000	91.113	12.055
285.088	91.108	12.220
289.234	91.108	12.431
293.441	91.117	12.693
297.710	91.141	12.971
302.040	91.187	13.208
306.433	91.253	13.323
310.890	91.323	13.255
315.412	91.384	13.017
320.000	91.426	12.679
324.655	91.448	12.316
329.377	91.453	11.982
334.168	91.447	11.692
339.028	91.437	11.452
343.959	91.424	11.265
348.962	91.410	11.114
354.038	91.395	10.951
359.188	91.380	10.794
364.412	91.365	10.666
369.713	91.350	10.555
375.090	91.334	10.452
380.546	91.319	10.355
386.081	91.304	10.266
391.697	91.289	10.190
397.395	91.272	10.131
403.175	91.251	10.070
409.039	91.229	10.004
414.989	91.206	9.950
421.025	91.184	9.914
427.149	91.162	9.890
433.362	91.140	9.878
439.665	91.119	9.864
446.060	91.103	9.843
452.548	91.094	9.858
459.131	91.082	9.922
465.809	91.052	9.980
472.584	91.011	10.029
479.458	90.982	10.087
486.432	90.969	10.163
493.507	90.963	10.256
500.686	90.948	10.365
507.968	90.923	10.505
515.357	90.899	10.717
522.853	90.894	10.956
530.458	90.908	11.161
538.174	90.922	11.337
546.002	90.919	11.513
553.943	90.904	11.703
562.001	90.884	11.913
570.175	90.864	12.140
578.469	90.844	12.390
586.883	90.827	12.673
595.419	90.813	12.985
604.080	90.803	13.276
612.866	90.795	13.530
621.780	90.781	13.793
630.824	90.762	14.105
640.000	90.743	14.470
649.309	90.729	14.878
658.753	90.724	15.327
668.335	90.727	15.801
678.056	90.735	16.276
687.919	90.748	16.734
697.925	90.765	17.181
708.076	90.789	17.647
718.376	90.818	18.106
728.825	90.855	18.541
739.426	90.902	18.964
750.181	90.953	19.381
761.093	91.004	19.798
772.163	91.050	20.220
783.394	91.095	20.645
794.789	91.144	21.074
806.349	91.196	21.516
818.078	91.241	21.968
829.977	91.280	22.418
842.050	91.318	22.867
854.297	91.364	23.332
866.724	91.422	23.813
879.330	91.496	24.295
892.120	91.579	24.773
905.097	91.661	25.248
918.262	91.735	25.720
931.618	91.800	26.180
945.169	91.864	26.625
958.917	91.936	27.058
972.864	92.021	27.477
987.015	92.117	27.870
1001.371	92.220	28.227
1015.937	92.329	28.539
1030.714	92.441	28.809
1045.706	92.556	29.040
1060.916	92.673	29.243
1076.347	92.792	29.414
1092.003	92.910	29.543
1107.887	93.029	29.626
1124.001	93.148	29.663
1140.350	93.266	29.665
1156.937	93.382	29.642
1173.765	93.497	29.594
1190.838	93.610	29.521
1208.159	93.720	29.422
1225.732	93.829	29.299
1243.561	93.938	29.160
1261.649	94.051	29.005
1280.000	94.168	28.834
1298.618	94.287	28.656
1317.507	94.401	28.478
1336.670	94.504	28.297
1356.113	94.600	28.108
1375.838	94.693	27.909
1395.850	94.785	27.703
1416.153	94.877	27.497
1436.751	94.969	27.288
1457.649	95.061	27.073
1478.851	95.152	26.851
1500.362	95.242	26.621
1522.185	95.333	26.381
1544.326	95.424	26.132
1566.789	95.515	25.871
1589.578	95.606	25.599
1612.699	95.698	25.316
1636.156	95.795	25.020
1659.955	95.908	24.709
1684.099	96.039	24.381
1708.595	96.175	24.037
1733.447	96.301	23.679
1758.661	96.411	23.299
1784.241	96.508	22.897
1810.193	96.599	22.478
1836.523	96.689	22.041
1863.236	96.777	21.586
1890.338	96.863	21.112
1917.833	96.948	20.619
1945.729	97.030	20.106
1974.030	97.111	19.576
2002.743	97.189	19.030
2031.873	97.265	18.469
2061.428	97.338	17.892
2091.412	97.408	17.302
2121.832	97.476	16.703
2152.695	97.540	16.095
2184.007	97.602	15.477
2215.774	97.663	14.852
2248.003	97.727	14.224
2280.701	97.795	13.593
2313.874	97.867	12.958
2347.530	97.937	12.322
2381.676	97.998	11.685
2416.318	98.047	11.043
2451.464	98.085	10.392
2487.122	98.122	9.730
2523.298	98.170	9.052
2560.000	98.221	8.353
2597.236	98.261	7.628
2635.014	98.290	6.871
2673.341	98.313	6.075
2712.226	98.336	5.239
2751.676	98.358	4.368
2791.700	98.374	3.470
2832.306	98.380	2.554
2873.503	98.372	1.632
2915.299	98.348	0.725
2957.703	98.309	-0.141
3000.724	98.253	-0.940
3044.370	98.177	-1.639
3088.652	98.081	-2.211
3133.577	97.974	-2.641
3179.156	97.870	-2.916
3225.398	97.781	-3.033
3272.312	97.711	-3.006
3319.909	97.662	-2.865
3368.198	97.643	-2.646
3417.190	97.661	-2.389
3466.894	97.708	-2.133
3517.321	97.766	-1.908
3568.482	97.833	-1.734
3620.387	97.913	-1.621
3673.046	98.012	-1.586
3726.472	98.132	-1.659
3780.675	98.276	-1.889
3835.666	98.445	-2.337
3891.457	98.640	-3.047
3948.060	98.846	-4.035
4005.486	99.037	-5.304
4063.747	99.197	-6.855
4122.855	99.310	-8.699
4182.824	99.362	-10.851
4243.664	99.340	-13.313
4305.390	99.233	-16.041
4368.013	99.030	-18.931
4431.547	98.717	-21.809
4496.005	98.299	-24.437
4561.401	97.791	-26.547
4627.749	97.199	-27.897
4695.061	96.542	-28.309
4763.352	95.865	-27.696
4832.637	95.215	-26.058
4902.929	94.627	-23.469
4974.244	94.142	-20.065
5046.596	93.803	-16.038
5120.000	93.642	-11.620
5194.472	93.665	-7.056
5270.027	93.857	-2.593
5346.682	94.210	1.507
5424.451	94.719	4.953
5503.352	95.369	7.433
5583.399	96.117	8.629
5664.612	96.884	8.260
5747.006	97.581	6.164
5830.598	98.130	2.407
5915.406	98.455	-2.587
6001.447	98.501	-8.041
6088.740	98.263	-13.070
6177.303	97.787	-17.002
6267.154	97.163	-19.533
6358.312	96.496	-20.676
6450.796	95.856	-20.619
6544.625	95.288	-19.607
6639.818	94.813	-17.871
6736.397	94.443	-15.612
6834.380	94.185	-13.005
6933.789	94.045	-10.204
7034.643	94.031	-7.353
7136.964	94.139	-4.598
7240.773	94.371	-2.099
7346.093	94.734	-0.047
7452.944	95.239	1.322
7561.350	95.885	1.705
7671.332	96.632	0.723
7782.915	97.398	-2.040
7896.120	98.061	-6.882
8010.971	98.467	-13.676
8127.493	98.469	-21.624
8245.711	98.005	-29.393
8365.647	97.140	-35.711
8487.328	96.008	-39.900
8610.779	94.760	-41.928
8736.026	93.506	-42.082
8863.095	92.310	-40.730
8992.011	91.217	-38.270
9122.803	90.248	-35.062
9255.497	89.397	-31.306
9390.121	88.659	-27.059
9526.704	88.042	-22.378
9665.273	87.557	-17.365
9805.857	87.214	-12.169
9948.487	87.034	-7.021
10093.191	87.039	-2.269
10240.000	87.224	1.629
10388.944	87.507	4.222
10540.055	87.736	5.377
10693.363	87.785	5.571
10848.902	87.626	5.752
11006.703	87.335	6.728
11166.799	87.040	8.719
11329.224	86.848	11.422
11494.012	86.793	14.373
11661.195	86.842	17.229
11830.812	86.974	19.743
12002.895	87.172	21.570
12177.480	87.363	22.511
12354.606	87.461	22.703
12534.309	87.411	22.520
12716.624	87.201	22.439
12901.592	86.858	22.923
13089.250	86.458	24.311
13279.637	86.132	26.699
13472.794	86.046	29.912
13668.760	86.342	33.558
13867.577	87.002	37.077
14069.285	87.877	39.742
14273.928	88.785	40.623
14481.547	89.560	38.781
14692.186	90.042	33.921
14905.889	90.116	26.724
15122.700	89.727	18.495
15342.664	88.861	11.230
15565.829	87.666	7.248
15792.239	86.556	7.264
16021.942	85.988	9.478
16254.986	86.003	10.856
16491.422	86.241	9.285
16731.295	86.362	4.498
16974.656	86.212	-2.809
17221.559	85.716	-11.566
17472.053	84.829	-20.410
17726.189	83.583	-28.034
17984.021	82.085	-33.550
18245.605	80.517	-36.592
18510.994	79.162	-37.521
18780.242	78.364	-38.316
19053.408	78.060	-42.202
19330.547	77.722	-49.760
19611.715	77.159	-59.246
19896.975	76.565	-67.410
