* Measurement data measured by REW V5,19
* Source: Input device not selected, no input selected, R, volume: no control
* Format: 256k Log Swept Sine, 1 sweep at -12,0 dBFS  With no timing reference
* Dated: 16.09.2021 17:37:13
* REW Settings:
*  C-weighting compensation: On
*  Target level: 75.0 dB
* Note: ; 
* Measurement: Arena L
* Smoothing: 1/24 octave
* Frequency Step: 1/48 octave
* Start Frequency: 20.3 Hz
*
* Freq(Hz)	SPL(dB)	Phase(degrees)
20.291	97.531	171.290
20.586	97.518	170.709
20.885	97.493	169.604
21.189	97.468	168.444
21.497	97.442	167.295
21.810	97.410	166.137
22.127	97.368	164.954
22.449	97.320	163.744
22.776	97.271	162.512
23.107	97.227	161.259
23.443	97.192	159.984
23.784	97.161	158.692
24.130	97.129	157.391
24.481	97.090	156.090
24.837	97.046	154.799
25.198	97.005	153.521
25.565	96.970	152.254
25.937	96.940	150.994
26.314	96.913	149.738
26.697	96.881	148.489
27.085	96.839	147.251
27.479	96.790	146.027
27.879	96.739	144.817
28.284	96.694	143.614
28.696	96.656	142.412
29.113	96.617	141.205
29.537	96.567	139.989
29.966	96.508	138.762
30.402	96.451	137.522
30.844	96.404	136.269
31.293	96.363	135.008
31.748	96.318	133.745
32.210	96.272	132.481
32.678	96.231	131.213
33.154	96.193	129.940
33.636	96.152	128.667
34.125	96.107	127.404
34.621	96.066	126.156
35.125	96.031	124.920
35.636	95.996	123.689
36.154	95.954	122.464
36.680	95.913	121.243
37.214	95.878	120.025
37.755	95.842	118.804
38.304	95.801	117.586
38.861	95.759	116.380
39.427	95.723	115.185
40.000	95.688	113.992
40.582	95.648	112.797
41.172	95.608	111.601
41.771	95.578	110.400
42.379	95.559	109.191
42.995	95.536	107.981
43.620	95.499	106.775
44.255	95.451	105.571
44.898	95.408	104.379
45.552	95.385	103.205
46.214	95.380	102.012
46.886	95.373	100.792
47.568	95.354	99.595
48.260	95.337	98.359
48.962	95.316	96.941
49.674	95.265	95.483
50.397	95.195	94.343
51.130	95.156	93.525
51.874	95.148	92.665
52.628	95.127	91.627
53.394	95.085	90.562
54.170	95.052	89.524
54.958	95.036	88.470
55.758	95.026	87.397
56.569	95.014	86.308
57.391	94.997	85.218
58.226	94.976	84.133
59.073	94.947	83.034
59.932	94.914	81.939
60.804	94.880	80.871
61.688	94.849	79.821
62.586	94.823	78.786
63.496	94.806	77.764
64.420	94.794	76.759
65.357	94.784	75.782
66.307	94.780	74.794
67.272	94.773	73.770
68.250	94.763	72.749
69.243	94.752	71.759
70.250	94.746	70.791
71.272	94.745	69.808
72.309	94.741	68.801
73.360	94.732	67.829
74.427	94.723	66.883
75.510	94.707	65.948
76.608	94.683	65.057
77.723	94.659	64.149
78.853	94.630	63.190
80.000	94.598	62.264
81.164	94.567	61.398
82.344	94.541	60.516
83.542	94.518	59.581
84.757	94.499	58.672
85.990	94.487	57.795
87.241	94.476	56.922
88.510	94.463	56.076
89.797	94.453	55.242
91.103	94.446	54.393
92.428	94.436	53.556
93.773	94.427	52.771
95.137	94.420	52.014
96.520	94.409	51.237
97.924	94.390	50.461
99.349	94.371	49.721
100.794	94.367	48.935
102.260	94.362	48.058
103.747	94.352	47.208
105.256	94.344	46.392
106.787	94.332	45.607
108.340	94.321	44.863
109.916	94.312	44.117
111.515	94.302	43.365
113.137	94.290	42.640
114.783	94.279	41.936
116.452	94.266	41.230
118.146	94.245	40.527
119.865	94.217	39.830
121.608	94.188	39.124
123.377	94.166	38.430
125.171	94.153	37.759
126.992	94.140	37.086
128.839	94.111	36.388
130.713	94.062	35.681
132.615	94.013	34.995
134.543	93.976	34.339
136.500	93.949	33.703
138.486	93.930	33.076
140.500	93.913	32.457
142.544	93.895	31.844
144.617	93.873	31.228
146.721	93.844	30.596
148.855	93.815	29.982
151.020	93.813	29.420
153.217	93.842	28.835
155.445	93.880	28.251
157.706	93.903	27.686
160.000	93.898	27.114
162.327	93.877	26.546
164.688	93.854	25.992
167.084	93.827	25.447
169.514	93.787	24.907
171.980	93.728	24.380
174.481	93.658	23.870
177.019	93.589	23.375
179.594	93.532	22.887
182.206	93.491	22.399
184.856	93.456	21.917
187.545	93.422	21.460
190.273	93.388	21.030
193.041	93.353	20.602
195.849	93.316	20.171
198.697	93.275	19.761
201.587	93.229	19.410
204.520	93.183	19.114
207.494	93.137	18.868
210.512	93.092	18.696
213.574	93.052	18.603
216.681	93.021	18.565
219.833	93.005	18.571
223.030	93.008	18.611
226.274	93.030	18.650
229.565	93.071	18.644
232.905	93.131	18.535
236.292	93.206	18.238
239.729	93.282	17.699
243.216	93.339	16.950
246.754	93.362	16.067
250.343	93.358	15.187
253.984	93.342	14.402
257.678	93.310	13.700
261.426	93.265	13.067
265.229	93.215	12.503
269.087	93.164	11.999
273.001	93.114	11.549
276.972	93.065	11.141
281.000	93.016	10.760
285.088	92.968	10.402
289.234	92.919	10.063
293.441	92.872	9.739
297.710	92.826	9.432
302.040	92.781	9.151
306.433	92.736	8.885
310.890	92.691	8.628
315.412	92.647	8.384
320.000	92.603	8.153
324.655	92.561	7.940
329.377	92.521	7.743
334.168	92.480	7.551
339.028	92.441	7.360
343.959	92.404	7.161
348.962	92.368	6.960
354.038	92.326	6.789
359.188	92.282	6.632
364.412	92.239	6.478
369.713	92.196	6.333
375.090	92.154	6.198
380.546	92.113	6.076
386.081	92.075	5.963
391.697	92.038	5.859
397.395	92.001	5.766
403.175	91.958	5.680
409.039	91.912	5.598
414.989	91.869	5.520
421.025	91.827	5.450
427.149	91.785	5.393
433.362	91.745	5.348
439.665	91.706	5.302
446.060	91.672	5.256
452.548	91.645	5.238
459.131	91.613	5.262
465.809	91.563	5.288
472.584	91.503	5.313
479.458	91.454	5.345
486.432	91.422	5.388
493.507	91.399	5.442
500.686	91.370	5.524
507.968	91.329	5.656
515.357	91.283	5.815
522.853	91.245	6.015
530.458	91.223	6.304
538.174	91.214	6.680
546.002	91.212	7.043
553.943	91.208	7.302
562.001	91.198	7.497
570.175	91.187	7.683
578.469	91.176	7.855
586.883	91.161	8.022
595.419	91.145	8.196
604.080	91.123	8.367
612.866	91.097	8.542
621.780	91.072	8.741
630.824	91.047	8.961
640.000	91.019	9.210
649.309	90.991	9.506
658.753	90.968	9.844
668.335	90.951	10.207
678.056	90.938	10.581
687.919	90.931	10.962
697.925	90.928	11.353
708.076	90.926	11.760
718.376	90.928	12.174
728.825	90.940	12.578
739.426	90.966	12.979
750.181	90.999	13.385
761.093	91.032	13.801
772.163	91.060	14.212
783.394	91.087	14.618
794.789	91.119	15.022
806.349	91.156	15.424
818.078	91.188	15.825
829.977	91.211	16.230
842.050	91.231	16.643
854.297	91.258	17.072
866.724	91.298	17.517
879.330	91.354	17.957
892.120	91.419	18.392
905.097	91.481	18.823
918.262	91.535	19.249
931.618	91.579	19.673
945.169	91.622	20.087
958.917	91.673	20.479
972.864	91.734	20.845
987.015	91.807	21.187
1001.371	91.886	21.504
1015.937	91.969	21.787
1030.714	92.054	22.035
1045.706	92.141	22.247
1060.916	92.231	22.429
1076.347	92.323	22.578
1092.003	92.414	22.688
1107.887	92.505	22.757
1124.001	92.596	22.785
1140.350	92.686	22.783
1156.937	92.772	22.758
1173.765	92.855	22.709
1190.838	92.936	22.632
1208.159	93.015	22.541
1225.732	93.092	22.442
1243.561	93.169	22.331
1261.649	93.249	22.210
1280.000	93.332	22.078
1298.618	93.418	21.939
1317.507	93.498	21.801
1336.670	93.567	21.665
1356.113	93.628	21.527
1375.838	93.687	21.391
1395.850	93.744	21.261
1416.153	93.800	21.134
1436.751	93.855	21.008
1457.649	93.910	20.887
1478.851	93.965	20.772
1500.362	94.021	20.655
1522.185	94.077	20.537
1544.326	94.134	20.422
1566.789	94.191	20.298
1589.578	94.249	20.168
1612.699	94.308	20.036
1636.156	94.373	19.899
1659.955	94.453	19.751
1684.099	94.552	19.589
1708.595	94.657	19.413
1733.447	94.753	19.222
1758.661	94.834	19.017
1784.241	94.902	18.793
1810.193	94.965	18.545
1836.523	95.026	18.274
1863.236	95.086	17.980
1890.338	95.143	17.666
1917.833	95.198	17.333
1945.729	95.251	16.978
1974.030	95.302	16.598
2002.743	95.350	16.196
2031.873	95.393	15.774
2061.428	95.432	15.336
2091.412	95.465	14.885
2121.832	95.493	14.418
2152.695	95.515	13.936
2184.007	95.529	13.450
2215.774	95.537	12.969
2248.003	95.544	12.497
2280.701	95.551	12.035
2313.874	95.557	11.590
2347.530	95.554	11.174
2381.676	95.537	10.791
2416.318	95.501	10.444
2451.464	95.448	10.140
2487.122	95.389	9.887
2523.298	95.335	9.695
2560.000	95.282	9.567
2597.236	95.215	9.503
2635.014	95.135	9.511
2673.341	95.052	9.598
2712.226	94.974	9.773
2751.676	94.904	10.042
2791.700	94.840	10.406
2832.306	94.780	10.867
2873.503	94.727	11.426
2915.299	94.681	12.086
2957.703	94.645	12.843
3000.724	94.621	13.701
3044.370	94.605	14.656
3088.652	94.597	15.700
3133.577	94.604	16.822
3179.156	94.639	18.009
3225.398	94.709	19.241
3272.312	94.815	20.491
3319.909	94.957	21.730
3368.198	95.137	22.915
3417.190	95.361	24.005
3466.894	95.618	24.960
3517.321	95.887	25.752
3568.482	96.161	26.366
3620.387	96.443	26.805
3673.046	96.735	27.080
3726.472	97.038	27.195
3780.675	97.356	27.136
3835.666	97.696	26.867
3891.457	98.064	26.340
3948.060	98.446	25.503
4005.486	98.820	24.317
4063.747	99.162	22.764
4122.855	99.454	20.836
4182.824	99.679	18.532
4243.664	99.824	15.869
4305.390	99.881	12.897
4368.013	99.834	9.720
4431.547	99.674	6.515
4496.005	99.403	3.524
4561.401	99.037	1.016
4627.749	98.582	-0.760
4695.061	98.057	-1.617
4763.352	97.509	-1.457
4832.637	96.984	-0.268
4902.929	96.517	1.873
4974.244	96.149	4.824
5046.596	95.928	8.393
5120.000	95.884	12.356
5194.472	96.023	16.469
5270.027	96.333	20.471
5346.682	96.802	24.089
5424.451	97.425	27.038
5503.352	98.185	29.018
5583.399	99.043	29.732
5664.612	99.927	28.906
5747.006	100.751	26.347
5830.598	101.438	22.070
5915.406	101.910	16.432
6001.447	102.106	10.150
6088.740	102.010	4.098
6177.303	101.661	-1.006
6267.154	101.146	-4.796
6358.312	100.568	-7.235
6450.796	100.003	-8.477
6544.625	99.493	-8.753
6639.818	99.065	-8.294
6736.397	98.732	-7.306
6834.380	98.504	-5.973
6933.789	98.388	-4.455
7034.643	98.391	-2.904
7136.964	98.513	-1.479
7240.773	98.754	-0.368
7346.093	99.121	0.205
7452.944	99.619	-0.047
7561.350	100.235	-1.484
7671.332	100.910	-4.529
7782.915	101.535	-9.561
7896.120	101.965	-16.658
8010.971	102.051	-25.272
8127.493	101.684	-34.183
8245.711	100.858	-41.965
8365.647	99.686	-47.660
8487.328	98.326	-51.029
8610.779	96.918	-52.321
8736.026	95.550	-51.917
8863.095	94.263	-50.181
8992.011	93.085	-47.447
9122.803	92.035	-44.019
9255.497	91.109	-40.089
9390.121	90.303	-35.710
9526.704	89.617	-30.919
9665.273	89.056	-25.802
9805.857	88.631	-20.482
9948.487	88.365	-15.156
10093.191	88.287	-10.153
10240.000	88.398	-5.932
10388.944	88.626	-2.974
10540.055	88.822	-1.487
10693.363	88.852	-1.084
10848.902	88.675	-0.860
11006.703	88.351	0.052
11166.799	88.003	1.969
11329.224	87.740	4.660
11494.012	87.607	7.678
11661.195	87.576	10.666
11830.812	87.628	13.376
12002.895	87.750	15.478
12177.480	87.876	16.739
12354.606	87.916	17.260
12534.309	87.816	17.393
12716.624	87.555	17.597
12901.592	87.157	18.348
13089.250	86.692	20.020
13279.637	86.285	22.752
13472.794	86.099	26.431
13668.760	86.277	30.741
13867.577	86.819	35.228
14069.285	87.604	39.309
14273.928	88.499	42.189
14481.547	89.413	42.786
14692.186	90.218	40.075
14905.889	90.733	33.733
15122.700	90.774	24.629
15342.664	90.225	15.160
15565.829	89.182	8.514
15792.239	88.051	6.217
16021.942	87.347	6.733
16254.986	87.205	6.699
16491.422	87.257	3.608
16731.295	87.096	-2.569
16974.656	86.569	-10.425
17221.559	85.684	-18.591
17472.053	84.478	-26.064
17726.189	83.002	-32.040
17984.021	81.344	-35.890
18245.605	79.650	-37.311
18510.994	78.179	-36.583
18780.242	77.293	-35.494
19053.408	76.981	-37.314
19330.547	76.698	-42.796
19611.715	76.245	-50.108
19896.975	75.815	-56.432
