* Measurement data measured by REW V5,19
* Source: Input device not selected, no input selected, R, volume: no control
* Format: 256k Log Swept Sine, 1 sweep at -12,0 dBFS  With no timing reference
* Dated: 17.09.2021 17:07:59
* REW Settings:
*  C-weighting compensation: On
*  Target level: 75.0 dB
* Note: ; 
* Measurement: CX 200 L
* Smoothing: 1/24 octave
* Frequency Step: 1/48 octave
* Start Frequency: 20.3 Hz
*
* Freq(Hz)	SPL(dB)	Phase(degrees)
20.291	103.126	-121.086
20.586	103.132	-121.497
20.885	103.146	-122.281
21.189	103.160	-123.114
21.497	103.171	-123.947
21.810	103.174	-124.794
22.127	103.168	-125.665
22.449	103.153	-126.564
22.776	103.136	-127.485
23.107	103.122	-128.423
23.443	103.115	-129.376
23.784	103.113	-130.342
24.130	103.108	-131.315
24.481	103.096	-132.291
24.837	103.080	-133.262
25.198	103.064	-134.223
25.565	103.054	-135.172
25.937	103.049	-136.111
26.314	103.045	-137.040
26.697	103.037	-137.962
27.085	103.020	-138.873
27.479	102.994	-139.769
27.879	102.966	-140.650
28.284	102.944	-141.519
28.696	102.927	-142.383
29.113	102.909	-143.246
29.537	102.878	-144.113
29.966	102.837	-144.984
30.402	102.797	-145.861
30.844	102.767	-146.745
31.293	102.741	-147.634
31.748	102.712	-148.527
32.210	102.681	-149.423
32.678	102.654	-150.323
33.154	102.629	-151.228
33.636	102.600	-152.133
34.125	102.567	-153.027
34.621	102.535	-153.904
35.125	102.510	-154.763
35.636	102.483	-155.612
36.154	102.449	-156.455
36.680	102.413	-157.287
37.214	102.383	-158.110
37.755	102.351	-158.932
38.304	102.312	-159.759
38.861	102.271	-160.590
39.427	102.232	-161.419
40.000	102.193	-162.250
40.582	102.147	-163.086
41.172	102.099	-163.919
41.771	102.061	-164.740
42.379	102.039	-165.554
42.995	102.015	-166.373
43.620	101.976	-167.185
44.255	101.926	-167.968
44.898	101.881	-168.725
45.552	101.852	-169.474
46.214	101.833	-170.217
46.886	101.808	-170.957
47.568	101.763	-171.714
48.260	101.694	-172.458
48.962	101.619	-173.118
49.674	101.570	-173.730
50.397	101.547	-174.439
51.130	101.520	-175.277
51.874	101.466	-176.119
52.628	101.393	-176.894
53.394	101.321	-177.644
54.170	101.263	-178.384
54.958	101.222	-179.097
55.758	101.190	-179.787
56.569	101.158	179.531
57.391	101.121	178.857
58.226	101.071	178.192
59.073	101.009	177.529
59.932	100.940	176.871
60.804	100.869	176.220
61.688	100.799	175.578
62.586	100.736	174.938
63.496	100.683	174.293
64.420	100.636	173.648
65.357	100.589	173.021
66.307	100.541	172.417
67.272	100.494	171.826
68.250	100.446	171.237
69.243	100.396	170.649
70.250	100.345	170.065
71.272	100.293	169.481
72.309	100.239	168.898
73.360	100.182	168.328
74.427	100.121	167.779
75.510	100.057	167.246
76.608	99.984	166.720
77.723	99.904	166.197
78.853	99.824	165.677
80.000	99.748	165.158
81.164	99.668	164.646
82.344	99.581	164.146
83.542	99.498	163.656
84.757	99.423	163.171
85.990	99.354	162.696
87.241	99.286	162.232
88.510	99.219	161.781
89.797	99.152	161.343
91.103	99.086	160.908
92.428	99.017	160.480
93.773	98.945	160.065
95.137	98.871	159.657
96.520	98.798	159.235
97.924	98.721	158.784
99.349	98.639	158.360
100.794	98.563	158.013
102.260	98.499	157.666
103.747	98.432	157.304
105.256	98.361	156.959
106.787	98.285	156.629
108.340	98.207	156.302
109.916	98.127	155.975
111.515	98.047	155.654
113.137	97.968	155.346
114.783	97.889	155.045
116.452	97.808	154.747
118.146	97.721	154.454
119.865	97.624	154.174
121.608	97.525	153.905
123.377	97.433	153.643
125.171	97.351	153.392
126.992	97.269	153.149
128.839	97.169	152.917
130.713	97.051	152.702
132.615	96.934	152.499
134.543	96.828	152.298
136.500	96.733	152.100
138.486	96.645	151.913
140.500	96.559	151.742
142.544	96.473	151.585
144.617	96.383	151.431
146.721	96.290	151.271
148.855	96.201	151.125
151.020	96.133	151.008
153.217	96.089	150.882
155.445	96.055	150.763
157.706	96.010	150.664
160.000	95.940	150.565
162.327	95.857	150.461
164.688	95.770	150.372
167.084	95.679	150.305
169.514	95.576	150.250
171.980	95.456	150.200
174.481	95.325	150.158
177.019	95.197	150.126
179.594	95.082	150.102
182.206	94.983	150.087
184.856	94.892	150.085
187.545	94.802	150.089
190.273	94.714	150.099
193.041	94.627	150.123
195.849	94.540	150.163
198.697	94.451	150.213
201.587	94.361	150.254
204.520	94.271	150.288
207.494	94.182	150.343
210.512	94.093	150.420
213.574	94.005	150.500
216.681	93.917	150.582
219.833	93.828	150.686
223.030	93.740	150.807
226.274	93.652	150.935
229.565	93.564	151.066
232.905	93.476	151.201
236.292	93.388	151.348
239.729	93.300	151.511
243.216	93.214	151.699
246.754	93.132	151.924
250.343	93.049	152.141
253.984	92.959	152.310
257.678	92.870	152.489
261.426	92.787	152.690
265.229	92.704	152.897
269.087	92.619	153.113
273.001	92.534	153.340
276.972	92.449	153.575
281.000	92.364	153.823
285.088	92.280	154.085
289.234	92.197	154.360
293.441	92.113	154.644
297.710	92.027	154.941
302.040	91.943	155.240
306.433	91.861	155.541
310.890	91.777	155.861
315.412	91.693	156.198
320.000	91.609	156.545
324.655	91.524	156.907
329.377	91.439	157.287
334.168	91.355	157.683
339.028	91.273	158.095
343.959	91.193	158.529
348.962	91.113	158.978
354.038	91.025	159.433
359.188	90.933	159.909
364.412	90.841	160.433
369.713	90.748	161.021
375.090	90.657	161.691
380.546	90.573	162.475
386.081	90.505	163.365
391.697	90.465	164.303
397.395	90.454	165.195
403.175	90.462	165.939
409.039	90.476	166.487
414.989	90.481	166.868
421.025	90.466	167.167
427.149	90.433	167.475
433.362	90.391	167.843
439.665	90.348	168.265
446.060	90.314	168.707
452.548	90.297	169.154
459.131	90.285	169.579
465.809	90.246	169.954
472.584	90.187	170.310
479.458	90.133	170.685
486.432	90.091	171.108
493.507	90.057	171.593
500.686	90.018	172.107
507.968	89.967	172.614
515.357	89.916	173.158
522.853	89.875	173.746
530.458	89.850	174.352
538.174	89.828	174.976
546.002	89.794	175.617
553.943	89.752	176.273
562.001	89.709	176.944
570.175	89.668	177.632
578.469	89.630	178.335
586.883	89.596	179.052
595.419	89.564	179.791
604.080	89.533	-179.468
612.866	89.503	-178.730
621.780	89.477	-177.977
630.824	89.454	-177.209
640.000	89.434	-176.431
649.309	89.418	-175.644
658.753	89.412	-174.841
668.335	89.412	-174.034
678.056	89.415	-173.233
687.919	89.425	-172.445
697.925	89.443	-171.671
708.076	89.479	-170.918
718.376	89.536	-170.238
728.825	89.617	-169.725
739.426	89.727	-169.553
750.181	89.834	-170.008
761.093	89.848	-171.251
772.163	89.647	-172.795
783.394	89.180	-173.357
794.789	88.581	-171.277
806.349	88.254	-166.941
818.078	88.312	-162.930
829.977	88.503	-160.270
842.050	88.683	-158.495
854.297	88.831	-157.106
866.724	88.964	-155.869
879.330	89.096	-154.715
892.120	89.224	-153.617
905.097	89.343	-152.538
918.262	89.448	-151.468
931.618	89.541	-150.429
945.169	89.630	-149.421
958.917	89.723	-148.436
972.864	89.825	-147.477
987.015	89.938	-146.555
1001.371	90.056	-145.665
1015.937	90.178	-144.802
1030.714	90.301	-143.980
1045.706	90.425	-143.196
1060.916	90.550	-142.428
1076.347	90.676	-141.691
1092.003	90.801	-141.003
1107.887	90.926	-140.346
1124.001	91.051	-139.713
1140.350	91.174	-139.106
1156.937	91.294	-138.519
1173.765	91.412	-137.945
1190.838	91.528	-137.384
1208.159	91.643	-136.837
1225.732	91.756	-136.300
1243.561	91.869	-135.765
1261.649	91.990	-135.234
1280.000	92.117	-134.705
1298.618	92.246	-134.166
1317.507	92.370	-133.613
1336.670	92.484	-133.052
1356.113	92.594	-132.482
1375.838	92.702	-131.898
1395.850	92.811	-131.305
1416.153	92.922	-130.695
1436.751	93.035	-130.069
1457.649	93.152	-129.427
1478.851	93.271	-128.770
1500.362	93.394	-128.105
1522.185	93.521	-127.431
1544.326	93.651	-126.745
1566.789	93.787	-126.045
1589.578	93.928	-125.334
1612.699	94.074	-124.618
1636.156	94.231	-123.895
1659.955	94.409	-123.165
1684.099	94.612	-122.428
1708.595	94.825	-121.690
1733.447	95.036	-120.956
1758.661	95.240	-120.223
1784.241	95.439	-119.495
1810.193	95.643	-118.775
1836.523	95.854	-118.065
1863.236	96.075	-117.371
1890.338	96.305	-116.696
1917.833	96.546	-116.041
1945.729	96.798	-115.413
1974.030	97.062	-114.820
2002.743	97.337	-114.267
2031.873	97.623	-113.754
2061.428	97.922	-113.287
2091.412	98.233	-112.880
2121.832	98.559	-112.545
2152.695	98.898	-112.292
2184.007	99.252	-112.128
2215.774	99.622	-112.064
2248.003	100.012	-112.116
2280.701	100.424	-112.305
2313.874	100.855	-112.649
2347.530	101.297	-113.168
2381.676	101.741	-113.884
2416.318	102.184	-114.825
2451.464	102.622	-116.018
2487.122	103.063	-117.492
2523.298	103.512	-119.272
2560.000	103.952	-121.383
2597.236	104.363	-123.840
2635.014	104.736	-126.648
2673.341	105.067	-129.797
2712.226	105.353	-133.256
2751.676	105.584	-136.969
2791.700	105.746	-140.857
2832.306	105.833	-144.822
2873.503	105.842	-148.755
2915.299	105.777	-152.552
2957.703	105.645	-156.125
3000.724	105.454	-159.401
3044.370	105.211	-162.334
3088.652	104.925	-164.898
3133.577	104.608	-167.089
3179.156	104.282	-168.914
3225.398	103.959	-170.393
3272.312	103.643	-171.553
3319.909	103.339	-172.415
3368.198	103.052	-173.008
3417.190	102.792	-173.357
3466.894	102.556	-173.481
3517.321	102.331	-173.394
3568.482	102.117	-173.115
3620.387	101.926	-172.667
3673.046	101.766	-172.082
3726.472	101.640	-171.410
3780.675	101.551	-170.710
3835.666	101.499	-170.029
3891.457	101.486	-169.378
3948.060	101.503	-168.742
4005.486	101.533	-168.100
4063.747	101.566	-167.443
4122.855	101.596	-166.774
4182.824	101.622	-166.102
4243.664	101.648	-165.429
4305.390	101.685	-164.758
4368.013	101.746	-164.091
4431.547	101.842	-163.444
4496.005	101.996	-162.861
4561.401	102.219	-162.411
4627.749	102.496	-162.183
4695.061	102.816	-162.267
4763.352	103.178	-162.748
4832.637	103.577	-163.714
4902.929	103.991	-165.263
4974.244	104.411	-167.497
5046.596	104.824	-170.511
5120.000	105.202	-174.367
5194.472	105.495	-179.038
5270.027	105.639	175.677
5346.682	105.609	170.137
5424.451	105.426	164.568
5503.352	105.081	159.145
5583.399	104.577	154.289
5664.612	103.945	150.309
5747.006	103.223	147.287
5830.598	102.467	145.184
5915.406	101.729	143.905
6001.447	101.031	143.337
6088.740	100.375	143.368
6177.303	99.756	143.900
6267.154	99.181	144.843
6358.312	98.671	146.123
6450.796	98.231	147.682
6544.625	97.858	149.460
6639.818	97.555	151.403
6736.397	97.325	153.464
6834.380	97.176	155.594
6933.789	97.121	157.729
7034.643	97.174	159.786
7136.964	97.344	161.647
7240.773	97.643	163.151
7346.093	98.094	164.078
7452.944	98.726	164.102
7561.350	99.548	162.709
7671.332	100.508	159.130
7782.915	101.456	152.425
7896.120	102.141	141.983
8010.971	102.276	128.525
8127.493	101.674	114.551
8245.711	100.359	102.971
8365.647	98.556	95.246
8487.328	96.548	91.153
8610.779	94.557	89.761
8736.026	92.686	90.208
8863.095	90.943	91.977
8992.011	89.317	94.848
9122.803	87.826	98.573
9255.497	86.488	102.792
9390.121	85.287	107.293
9526.704	84.194	112.023
9665.273	83.188	116.982
9805.857	82.255	122.153
9948.487	81.392	127.509
10093.191	80.604	133.017
10240.000	79.901	138.661
10388.944	79.281	144.439
10540.055	78.714	150.328
10693.363	78.183	156.318
10848.902	77.691	162.407
11006.703	77.251	168.597
11166.799	76.875	174.893
11329.224	76.575	-178.691
11494.012	76.353	-172.148
11661.195	76.188	-165.482
11830.812	76.075	-158.660
12002.895	76.035	-151.648
12177.480	76.079	-144.463
12354.606	76.206	-137.159
12534.309	76.422	-129.797
12716.624	76.745	-122.446
12901.592	77.208	-115.206
13089.250	77.868	-108.221
13279.637	78.829	-101.711
13472.794	80.216	-96.026
13668.760	82.083	-91.711
13867.577	84.313	-89.532
14069.285	86.711	-90.668
14273.928	88.946	-97.455
14481.547	90.409	-112.540
14692.186	90.475	-133.005
14905.889	89.081	-149.621
15122.700	86.815	-157.404
15342.664	84.483	-158.212
15565.829	82.652	-155.272
15792.239	81.471	-150.555
16021.942	80.829	-145.047
16254.986	80.543	-139.337
16491.422	80.515	-133.912
16731.295	80.744	-129.324
16974.656	81.294	-126.373
17221.559	82.160	-126.360
17472.053	83.123	-131.160
17726.189	83.732	-142.208
17984.021	83.500	-157.980
18245.605	82.211	-173.339
18510.994	80.051	176.218
18780.242	77.469	171.214
19053.408	74.910	169.762
19330.547	72.608	169.930
19611.715	70.590	170.388
19896.975	69.052	170.504
