* Measurement data measured by REW V5,19
* Source: Input device not selected, no input selected, R, volume: no control
* Format: 256k Log Swept Sine, 1 sweep at -12,0 dBFS  With no timing reference
* Dated: 17.09.2021 17:09:25
* REW Settings:
*  C-weighting compensation: On
*  Target level: 75.0 dB
* Note: ; 
* Measurement: CX 200 R
* Smoothing: 1/24 octave
* Frequency Step: 1/48 octave
* Start Frequency: 20.3 Hz
*
* Freq(Hz)	SPL(dB)	Phase(degrees)
20.291	101.277	-106.162
20.586	101.298	-106.614
20.885	101.343	-107.476
21.189	101.387	-108.388
21.497	101.426	-109.300
21.810	101.456	-110.224
22.127	101.475	-111.172
22.449	101.486	-112.146
22.776	101.493	-113.139
23.107	101.504	-114.149
23.443	101.522	-115.175
23.784	101.543	-116.215
24.130	101.562	-117.265
24.481	101.574	-118.319
24.837	101.580	-119.371
25.198	101.587	-120.415
25.565	101.600	-121.451
25.937	101.618	-122.481
26.314	101.637	-123.508
26.697	101.651	-124.532
27.085	101.656	-125.548
27.479	101.651	-126.548
27.879	101.644	-127.525
28.284	101.643	-128.482
28.696	101.650	-129.426
29.113	101.655	-130.371
29.537	101.649	-131.326
29.966	101.633	-132.292
30.402	101.616	-133.264
30.844	101.607	-134.236
31.293	101.603	-135.208
31.748	101.595	-136.184
32.210	101.584	-137.168
32.678	101.575	-138.159
33.154	101.567	-139.151
33.636	101.553	-140.136
34.125	101.536	-141.112
34.621	101.522	-142.080
35.125	101.513	-143.041
35.636	101.502	-143.995
36.154	101.484	-144.940
36.680	101.466	-145.880
37.214	101.453	-146.813
37.755	101.438	-147.739
38.304	101.418	-148.657
38.861	101.398	-149.572
39.427	101.381	-150.490
40.000	101.361	-151.407
40.582	101.336	-152.320
41.172	101.308	-153.235
41.771	101.289	-154.160
42.379	101.278	-155.085
42.995	101.262	-155.985
43.620	101.234	-156.862
44.255	101.198	-157.739
44.898	101.166	-158.616
45.552	101.149	-159.485
46.214	101.145	-160.351
46.886	101.135	-161.206
47.568	101.112	-162.022
48.260	101.087	-162.855
48.962	101.061	-163.819
49.674	101.021	-164.854
50.397	100.969	-165.745
51.130	100.925	-166.446
51.874	100.892	-167.125
52.628	100.847	-167.883
53.394	100.791	-168.667
54.170	100.746	-169.440
54.958	100.716	-170.217
55.758	100.692	-170.995
56.569	100.667	-171.773
57.391	100.637	-172.558
58.226	100.597	-173.339
59.073	100.546	-174.107
59.932	100.491	-174.872
60.804	100.435	-175.627
61.688	100.379	-176.364
62.586	100.328	-177.092
63.496	100.285	-177.812
64.420	100.248	-178.526
65.357	100.211	-179.231
66.307	100.173	-179.924
67.272	100.135	179.381
68.250	100.096	178.687
69.243	100.056	178.003
70.250	100.016	177.323
71.272	99.974	176.656
72.309	99.931	176.003
73.360	99.885	175.359
74.427	99.836	174.724
75.510	99.781	174.099
76.608	99.718	173.475
77.723	99.647	172.852
78.853	99.576	172.233
80.000	99.508	171.630
81.164	99.438	171.038
82.344	99.359	170.452
83.542	99.283	169.878
84.757	99.215	169.311
85.990	99.154	168.746
87.241	99.095	168.182
88.510	99.036	167.627
89.797	98.977	167.083
91.103	98.916	166.559
92.428	98.853	166.059
93.773	98.790	165.567
95.137	98.725	165.063
96.520	98.659	164.533
97.924	98.589	163.986
99.349	98.514	163.461
100.794	98.442	163.031
102.260	98.382	162.631
103.747	98.322	162.205
105.256	98.255	161.780
106.787	98.185	161.359
108.340	98.113	160.941
109.916	98.040	160.524
111.515	97.967	160.115
113.137	97.894	159.721
114.783	97.819	159.337
116.452	97.743	158.959
118.146	97.660	158.587
119.865	97.568	158.225
121.608	97.473	157.874
123.377	97.388	157.531
125.171	97.312	157.197
126.992	97.235	156.868
128.839	97.140	156.546
130.713	97.025	156.235
132.615	96.910	155.939
134.543	96.808	155.654
136.500	96.717	155.383
138.486	96.632	155.123
140.500	96.549	154.862
142.544	96.467	154.600
144.617	96.386	154.362
146.721	96.309	154.166
148.855	96.239	153.984
151.020	96.173	153.751
153.217	96.113	153.508
155.445	96.068	153.293
157.706	96.023	153.098
160.000	95.956	152.921
162.327	95.875	152.758
164.688	95.788	152.602
167.084	95.699	152.450
169.514	95.599	152.307
171.980	95.480	152.179
174.481	95.351	152.061
177.019	95.225	151.951
179.594	95.113	151.846
182.206	95.015	151.747
184.856	94.924	151.661
187.545	94.835	151.590
190.273	94.747	151.527
193.041	94.659	151.470
195.849	94.570	151.421
198.697	94.480	151.382
201.587	94.391	151.358
204.520	94.304	151.343
207.494	94.217	151.333
210.512	94.129	151.329
213.574	94.042	151.344
216.681	93.955	151.377
219.833	93.868	151.401
223.030	93.778	151.426
226.274	93.687	151.467
229.565	93.597	151.522
232.905	93.508	151.587
236.292	93.421	151.660
239.729	93.333	151.744
243.216	93.245	151.821
246.754	93.162	151.865
250.343	93.077	151.940
253.984	92.986	152.115
257.678	92.895	152.298
261.426	92.807	152.455
265.229	92.720	152.608
269.087	92.633	152.769
273.001	92.545	152.945
276.972	92.459	153.135
281.000	92.374	153.336
285.088	92.291	153.545
289.234	92.209	153.759
293.441	92.126	153.973
297.710	92.040	154.178
302.040	91.956	154.396
306.433	91.875	154.639
310.890	91.793	154.894
315.412	91.710	155.154
320.000	91.627	155.419
324.655	91.543	155.697
329.377	91.459	155.987
334.168	91.375	156.285
339.028	91.291	156.590
343.959	91.206	156.889
348.962	91.122	157.196
354.038	91.035	157.571
359.188	90.946	157.981
364.412	90.857	158.388
369.713	90.766	158.808
375.090	90.674	159.256
380.546	90.582	159.747
386.081	90.488	160.305
391.697	90.393	160.946
397.395	90.300	161.698
403.175	90.217	162.567
409.039	90.161	163.538
414.989	90.145	164.554
421.025	90.171	165.445
427.149	90.222	166.041
433.362	90.263	166.308
439.665	90.273	166.372
446.060	90.250	166.401
452.548	90.216	166.480
459.131	90.174	166.630
465.809	90.103	166.878
472.584	90.017	167.212
479.458	89.943	167.604
486.432	89.888	168.038
493.507	89.843	168.489
500.686	89.796	168.963
507.968	89.746	169.483
515.357	89.694	170.019
522.853	89.649	170.561
530.458	89.619	171.116
538.174	89.590	171.682
546.002	89.550	172.267
553.943	89.500	172.882
562.001	89.447	173.525
570.175	89.397	174.174
578.469	89.347	174.828
586.883	89.297	175.488
595.419	89.247	176.156
604.080	89.204	176.851
612.866	89.168	177.582
621.780	89.132	178.322
630.824	89.096	179.068
640.000	89.059	179.817
649.309	89.024	-179.426
658.753	88.995	-178.635
668.335	88.970	-177.821
678.056	88.947	-177.000
687.919	88.927	-176.160
697.925	88.911	-175.295
708.076	88.893	-174.440
718.376	88.878	-173.585
728.825	88.872	-172.712
739.426	88.878	-171.827
750.181	88.893	-170.924
761.093	88.914	-169.990
772.163	88.932	-169.036
783.394	88.949	-168.076
794.789	88.972	-167.114
806.349	89.003	-166.147
818.078	89.033	-165.165
829.977	89.058	-164.168
842.050	89.086	-163.169
854.297	89.120	-162.179
866.724	89.167	-161.196
879.330	89.232	-160.207
892.120	89.308	-159.222
905.097	89.385	-158.263
918.262	89.454	-157.337
931.618	89.512	-156.448
945.169	89.563	-155.612
958.917	89.601	-154.817
972.864	89.618	-153.892
987.015	89.645	-152.585
1001.371	89.745	-151.005
1015.937	89.927	-149.636
1030.714	90.133	-148.720
1045.706	90.317	-148.129
1060.916	90.473	-147.669
1076.347	90.609	-147.237
1092.003	90.736	-146.799
1107.887	90.859	-146.353
1124.001	90.981	-145.904
1140.350	91.100	-145.457
1156.937	91.216	-145.029
1173.765	91.331	-144.621
1190.838	91.444	-144.222
1208.159	91.556	-143.834
1225.732	91.668	-143.457
1243.561	91.781	-143.085
1261.649	91.897	-142.707
1280.000	92.019	-142.327
1298.618	92.144	-141.949
1317.507	92.265	-141.559
1336.670	92.376	-141.161
1356.113	92.482	-140.765
1375.838	92.588	-140.368
1395.850	92.695	-139.961
1416.153	92.803	-139.537
1436.751	92.912	-139.100
1457.649	93.024	-138.658
1478.851	93.138	-138.211
1500.362	93.254	-137.757
1522.185	93.375	-137.298
1544.326	93.500	-136.835
1566.789	93.629	-136.367
1589.578	93.762	-135.897
1612.699	93.901	-135.427
1636.156	94.050	-134.962
1659.955	94.219	-134.504
1684.099	94.411	-134.048
1708.595	94.614	-133.598
1733.447	94.813	-133.161
1758.661	95.003	-132.740
1784.241	95.186	-132.335
1810.193	95.372	-131.950
1836.523	95.563	-131.584
1863.236	95.760	-131.246
1890.338	95.965	-130.944
1917.833	96.178	-130.680
1945.729	96.398	-130.458
1974.030	96.625	-130.284
2002.743	96.860	-130.160
2031.873	97.102	-130.091
2061.428	97.350	-130.087
2091.412	97.605	-130.153
2121.832	97.865	-130.294
2152.695	98.130	-130.520
2184.007	98.401	-130.835
2215.774	98.677	-131.250
2248.003	98.962	-131.771
2280.701	99.257	-132.406
2313.874	99.557	-133.161
2347.530	99.856	-134.042
2381.676	100.143	-135.052
2416.318	100.414	-136.196
2451.464	100.666	-137.479
2487.122	100.908	-138.900
2523.298	101.148	-140.453
2560.000	101.376	-142.132
2597.236	101.575	-143.930
2635.014	101.744	-145.833
2673.341	101.890	-147.824
2712.226	102.017	-149.884
2751.676	102.125	-151.991
2791.700	102.211	-154.120
2832.306	102.271	-156.248
2873.503	102.305	-158.351
2915.299	102.315	-160.401
2957.703	102.302	-162.377
3000.724	102.268	-164.262
3044.370	102.212	-166.044
3088.652	102.131	-167.710
3133.577	102.034	-169.252
3179.156	101.933	-170.670
3225.398	101.834	-171.964
3272.312	101.740	-173.136
3319.909	101.650	-174.192
3368.198	101.569	-175.137
3417.190	101.506	-175.980
3466.894	101.455	-176.730
3517.321	101.403	-177.391
3568.482	101.349	-177.969
3620.387	101.304	-178.475
3673.046	101.275	-178.920
3726.472	101.267	-179.329
3780.675	101.286	-179.756
3835.666	101.338	179.739
3891.457	101.427	179.107
3948.060	101.541	178.328
4005.486	101.658	177.398
4063.747	101.762	176.322
4122.855	101.847	175.094
4182.824	101.906	173.697
4243.664	101.940	172.108
4305.390	101.955	170.306
4368.013	101.951	168.276
4431.547	101.926	166.007
4496.005	101.884	163.499
4561.401	101.824	160.774
4627.749	101.721	157.876
4695.061	101.556	154.869
4763.352	101.330	151.844
4832.637	101.044	148.909
4902.929	100.692	146.163
4974.244	100.286	143.673
5046.596	99.850	141.470
5120.000	99.397	139.570
5194.472	98.927	138.002
5270.027	98.426	136.831
5346.682	97.900	136.122
5424.451	97.382	135.775
5503.352	96.878	135.625
5583.399	96.372	135.719
5664.612	95.862	136.135
5747.006	95.351	136.863
5830.598	94.864	137.869
5915.406	94.424	139.124
6001.447	94.032	140.589
6088.740	93.678	142.231
6177.303	93.348	144.022
6267.154	93.050	145.935
6358.312	92.800	147.950
6450.796	92.602	150.047
6544.625	92.454	152.205
6639.818	92.358	154.398
6736.397	92.317	156.595
6834.380	92.342	158.760
6933.789	92.446	160.838
7034.643	92.642	162.751
7136.964	92.940	164.384
7240.773	93.346	165.581
7346.093	93.880	166.125
7452.944	94.557	165.698
7561.350	95.377	163.821
7671.332	96.271	159.857
7782.915	97.096	153.154
7896.120	97.648	143.470
8010.971	97.712	131.626
8127.493	97.157	119.604
8245.711	96.011	109.543
8365.647	94.451	102.556
8487.328	92.704	98.574
8610.779	90.953	96.943
8736.026	89.289	96.948
8863.095	87.720	98.029
8992.011	86.220	99.929
9122.803	84.768	102.754
9255.497	83.394	106.635
9390.121	82.164	111.298
9526.704	81.095	116.301
9665.273	80.149	121.432
9805.857	79.281	126.670
9948.487	78.475	132.030
10093.191	77.740	137.520
10240.000	77.093	143.145
10388.944	76.535	148.877
10540.055	76.032	154.662
10693.363	75.559	160.494
10848.902	75.123	166.422
11006.703	74.735	172.450
11166.799	74.408	178.566
11329.224	74.151	-175.198
11494.012	73.964	-168.818
11661.195	73.828	-162.281
11830.812	73.736	-155.571
12002.895	73.706	-148.673
12177.480	73.747	-141.575
12354.606	73.857	-134.297
12534.309	74.040	-126.868
12716.624	74.310	-119.328
12901.592	74.696	-111.742
13089.250	75.251	-104.172
13279.637	76.071	-96.690
13472.794	77.292	-89.448
13668.760	79.022	-82.682
13867.577	81.238	-76.810
14069.285	83.873	-72.622
14273.928	86.851	-71.699
14481.547	89.828	-77.549
14692.186	91.977	-94.783
14905.889	92.495	-121.058
15122.700	91.235	-144.220
15342.664	88.860	-156.505
15565.829	86.370	-160.101
15792.239	84.415	-159.007
16021.942	83.111	-155.200
16254.986	82.381	-149.764
16491.422	82.190	-143.993
16731.295	82.510	-139.323
16974.656	83.310	-137.232
17221.559	84.426	-139.605
17472.053	85.426	-148.517
17726.189	85.731	-163.998
17984.021	84.951	178.389
18245.605	83.137	164.640
18510.994	80.743	156.918
18780.242	78.319	153.525
19053.408	76.210	152.004
19330.547	74.440	150.721
19611.715	72.888	148.978
19896.975	71.703	147.294
