* Measurement data measured by REW V5,19
* Source: Input device not selected, no input selected, R, volume: no control
* Format: 256k Log Swept Sine, 1 sweep at -12,0 dBFS  With no timing reference
* Dated: 04.09.2021 17:29:55
* REW Settings:
*  C-weighting compensation: On
*  Target level: 75.0 dB
* Note: ; 
* Measurement: CX 3.00 EQ R
* Smoothing: 1/24 octave
* Frequency Step: 1/48 octave
* Start Frequency: 20.3 Hz
*
* Freq(Hz)	SPL(dB)	Phase(degrees)
20.291	99.563	-108.798
20.586	99.583	-109.178
20.885	99.625	-109.907
21.189	99.668	-110.691
21.497	99.705	-111.484
21.810	99.734	-112.295
22.127	99.752	-113.131
22.449	99.762	-113.994
22.776	99.769	-114.876
23.107	99.779	-115.775
23.443	99.796	-116.687
23.784	99.819	-117.610
24.130	99.839	-118.544
24.481	99.853	-119.484
24.837	99.863	-120.426
25.198	99.873	-121.365
25.565	99.888	-122.296
25.937	99.908	-123.218
26.314	99.929	-124.128
26.697	99.945	-125.027
27.085	99.954	-125.911
27.479	99.954	-126.782
27.879	99.954	-127.640
28.284	99.959	-128.488
28.696	99.970	-129.333
29.113	99.979	-130.180
29.537	99.977	-131.033
29.966	99.964	-131.892
30.402	99.952	-132.759
30.844	99.949	-133.632
31.293	99.952	-134.513
31.748	99.950	-135.403
32.210	99.946	-136.303
32.678	99.945	-137.212
33.154	99.946	-138.122
33.636	99.942	-139.027
34.125	99.935	-139.922
34.621	99.931	-140.807
35.125	99.933	-141.683
35.636	99.933	-142.549
36.154	99.926	-143.405
36.680	99.918	-144.252
37.214	99.916	-145.095
37.755	99.911	-145.934
38.304	99.900	-146.768
38.861	99.889	-147.600
39.427	99.881	-148.439
40.000	99.873	-149.293
40.582	99.857	-150.161
41.172	99.838	-151.031
41.771	99.828	-151.890
42.379	99.832	-152.739
42.995	99.835	-153.585
43.620	99.825	-154.429
44.255	99.804	-155.259
44.898	99.787	-156.073
45.552	99.786	-156.878
46.214	99.794	-157.675
46.886	99.796	-158.465
47.568	99.778	-159.264
48.260	99.738	-160.046
48.962	99.696	-160.760
49.674	99.678	-161.454
50.397	99.684	-162.261
51.130	99.681	-163.192
51.874	99.651	-164.109
52.628	99.603	-164.949
53.394	99.557	-165.763
54.170	99.527	-166.576
54.958	99.515	-167.375
55.758	99.510	-168.165
56.569	99.502	-168.945
57.391	99.489	-169.709
58.226	99.464	-170.465
59.073	99.428	-171.219
59.932	99.386	-171.975
60.804	99.342	-172.737
61.688	99.299	-173.502
62.586	99.260	-174.264
63.496	99.230	-175.010
64.420	99.208	-175.741
65.357	99.188	-176.465
66.307	99.167	-177.189
67.272	99.144	-177.915
68.250	99.118	-178.642
69.243	99.090	-179.370
70.250	99.061	179.901
71.272	99.031	179.173
72.309	98.999	178.450
73.360	98.966	177.738
74.427	98.931	177.033
75.510	98.888	176.336
76.608	98.836	175.645
77.723	98.773	174.959
78.853	98.710	174.281
80.000	98.651	173.607
81.164	98.588	172.931
82.344	98.518	172.263
83.542	98.452	171.603
84.757	98.395	170.945
85.990	98.342	170.284
87.241	98.289	169.625
88.510	98.233	168.973
89.797	98.176	168.334
91.103	98.117	167.710
92.428	98.058	167.095
93.773	97.998	166.471
95.137	97.931	165.832
96.520	97.859	165.214
97.924	97.787	164.605
99.349	97.713	164.016
100.794	97.646	163.478
102.260	97.588	162.916
103.747	97.526	162.324
105.256	97.458	161.738
106.787	97.383	161.168
108.340	97.304	160.611
109.916	97.223	160.053
111.515	97.137	159.503
113.137	97.047	158.978
114.783	96.956	158.471
116.452	96.863	157.971
118.146	96.762	157.477
119.865	96.650	157.001
121.608	96.533	156.544
123.377	96.423	156.107
125.171	96.319	155.703
126.992	96.214	155.333
128.839	96.095	154.991
130.713	95.960	154.660
132.615	95.826	154.320
134.543	95.703	153.958
136.500	95.588	153.576
138.486	95.475	153.182
140.500	95.359	152.790
142.544	95.233	152.418
144.617	95.096	152.069
146.721	94.949	151.740
148.855	94.795	151.456
151.020	94.651	151.270
153.217	94.523	151.175
155.445	94.395	151.199
157.706	94.245	151.396
160.000	94.063	151.820
162.327	93.872	152.578
164.688	93.712	153.806
167.084	93.641	155.461
169.514	93.709	157.069
171.980	93.889	157.868
174.481	94.072	157.442
177.019	94.157	156.121
179.594	94.123	154.586
182.206	94.005	153.295
184.856	93.842	152.357
187.545	93.661	151.726
190.273	93.477	151.337
193.041	93.297	151.135
195.849	93.120	151.081
198.697	92.945	151.139
201.587	92.776	151.285
204.520	92.614	151.509
207.494	92.460	151.819
210.512	92.311	152.198
213.574	92.173	152.637
216.681	92.050	153.156
219.833	91.945	153.690
223.030	91.852	154.136
226.274	91.757	154.499
229.565	91.653	154.865
232.905	91.542	155.289
236.292	91.433	155.781
239.729	91.327	156.328
243.216	91.231	156.934
246.754	91.143	157.624
250.343	91.060	158.308
253.984	90.982	158.904
257.678	90.911	159.511
261.426	90.847	160.169
265.229	90.791	160.839
269.087	90.741	161.513
273.001	90.696	162.182
276.972	90.657	162.835
281.000	90.623	163.477
285.088	90.595	164.111
289.234	90.571	164.733
293.441	90.548	165.338
297.710	90.526	165.923
302.040	90.511	166.489
306.433	90.505	167.030
310.890	90.499	167.554
315.412	90.493	168.065
320.000	90.488	168.555
324.655	90.485	169.021
329.377	90.483	169.474
334.168	90.482	169.906
339.028	90.483	170.318
343.959	90.484	170.732
348.962	90.486	171.146
354.038	90.486	171.498
359.188	90.487	171.819
364.412	90.488	172.150
369.713	90.487	172.476
375.090	90.486	172.789
380.546	90.486	173.094
386.081	90.486	173.394
391.697	90.485	173.690
397.395	90.482	173.984
403.175	90.475	174.270
409.039	90.467	174.552
414.989	90.461	174.835
421.025	90.455	175.116
427.149	90.448	175.390
433.362	90.441	175.659
439.665	90.434	175.915
446.060	90.431	176.153
452.548	90.437	176.429
459.131	90.440	176.745
465.809	90.423	177.044
472.584	90.396	177.331
479.458	90.381	177.619
486.432	90.381	177.914
493.507	90.389	178.214
500.686	90.393	178.518
507.968	90.391	178.820
515.357	90.384	179.130
522.853	90.384	179.448
530.458	90.399	179.776
538.174	90.414	-179.886
546.002	90.415	-179.530
553.943	90.404	-179.174
562.001	90.389	-178.823
570.175	90.374	-178.463
578.469	90.360	-178.090
586.883	90.347	-177.702
595.419	90.333	-177.298
604.080	90.322	-176.887
612.866	90.312	-176.476
621.780	90.301	-176.055
630.824	90.292	-175.621
640.000	90.285	-175.182
649.309	90.278	-174.732
658.753	90.271	-174.249
668.335	90.266	-173.752
678.056	90.263	-173.258
687.919	90.263	-172.755
697.925	90.265	-172.243
708.076	90.266	-171.707
718.376	90.270	-171.154
728.825	90.284	-170.597
739.426	90.311	-170.040
750.181	90.345	-169.472
761.093	90.376	-168.873
772.163	90.404	-168.259
783.394	90.433	-167.639
794.789	90.468	-167.014
806.349	90.510	-166.390
818.078	90.549	-165.770
829.977	90.583	-165.140
842.050	90.615	-164.497
854.297	90.657	-163.859
866.724	90.716	-163.240
879.330	90.791	-162.624
892.120	90.877	-162.005
905.097	90.960	-161.404
918.262	91.031	-160.833
931.618	91.094	-160.278
945.169	91.156	-159.741
958.917	91.228	-159.234
972.864	91.310	-158.762
987.015	91.402	-158.321
1001.371	91.501	-157.918
1015.937	91.602	-157.564
1030.714	91.704	-157.248
1045.706	91.807	-156.967
1060.916	91.911	-156.733
1076.347	92.015	-156.541
1092.003	92.118	-156.382
1107.887	92.219	-156.265
1124.001	92.317	-156.189
1140.350	92.412	-156.141
1156.937	92.505	-156.127
1173.765	92.596	-156.141
1190.838	92.681	-156.174
1208.159	92.762	-156.229
1225.732	92.840	-156.300
1243.561	92.916	-156.380
1261.649	92.994	-156.468
1280.000	93.073	-156.561
1298.618	93.152	-156.656
1317.507	93.223	-156.752
1336.670	93.278	-156.849
1356.113	93.321	-156.940
1375.838	93.353	-157.011
1395.850	93.377	-157.030
1416.153	93.394	-156.976
1436.751	93.407	-156.841
1457.649	93.417	-156.610
1478.851	93.426	-156.240
1500.362	93.443	-155.672
1522.185	93.488	-154.879
1544.326	93.591	-153.950
1566.789	93.768	-153.146
1589.578	93.992	-152.784
1612.699	94.207	-152.941
1636.156	94.377	-153.376
1659.955	94.522	-153.803
1684.099	94.674	-154.140
1708.595	94.836	-154.482
1733.447	94.987	-154.938
1758.661	95.105	-155.505
1784.241	95.188	-156.095
1810.193	95.246	-156.639
1836.523	95.293	-157.113
1863.236	95.335	-157.521
1890.338	95.375	-157.875
1917.833	95.415	-158.186
1945.729	95.456	-158.462
1974.030	95.501	-158.711
2002.743	95.550	-158.943
2031.873	95.607	-159.184
2061.428	95.668	-159.468
2091.412	95.730	-159.813
2121.832	95.788	-160.210
2152.695	95.839	-160.635
2184.007	95.883	-161.077
2215.774	95.923	-161.526
2248.003	95.961	-161.984
2280.701	96.002	-162.451
2313.874	96.040	-162.920
2347.530	96.067	-163.381
2381.676	96.076	-163.816
2416.318	96.061	-164.197
2451.464	96.021	-164.472
2487.122	95.973	-164.558
2523.298	95.946	-164.382
2560.000	95.962	-163.955
2597.236	96.039	-163.481
2635.014	96.172	-163.305
2673.341	96.324	-163.646
2712.226	96.452	-164.435
2751.676	96.538	-165.443
2791.700	96.582	-166.484
2832.306	96.595	-167.469
2873.503	96.585	-168.376
2915.299	96.561	-169.206
2957.703	96.526	-169.966
3000.724	96.482	-170.662
3044.370	96.426	-171.302
3088.652	96.355	-171.890
3133.577	96.275	-172.437
3179.156	96.195	-172.953
3225.398	96.118	-173.447
3272.312	96.043	-173.917
3319.909	95.965	-174.357
3368.198	95.885	-174.766
3417.190	95.806	-175.126
3466.894	95.721	-175.379
3517.321	95.624	-175.428
3568.482	95.544	-175.340
3620.387	95.484	-175.389
3673.046	95.405	-175.539
3726.472	95.317	-175.578
3780.675	95.245	-175.607
3835.666	95.176	-175.737
3891.457	95.102	-175.842
3948.060	95.029	-175.831
4005.486	94.952	-175.707
4063.747	94.865	-175.503
4122.855	94.761	-175.239
4182.824	94.635	-174.934
4243.664	94.488	-174.593
4305.390	94.330	-174.212
4368.013	94.166	-173.786
4431.547	94.005	-173.315
4496.005	93.860	-172.797
4561.401	93.740	-172.232
4627.749	93.631	-171.626
4695.061	93.522	-170.985
4763.352	93.421	-170.305
4832.637	93.328	-169.587
4902.929	93.236	-168.833
4974.244	93.149	-168.047
5046.596	93.082	-167.229
5120.000	93.040	-166.379
5194.472	93.019	-165.496
5270.027	92.999	-164.586
5346.682	92.972	-163.653
5424.451	92.947	-162.700
5503.352	92.933	-161.737
5583.399	92.935	-160.768
5664.612	92.940	-159.797
5747.006	92.941	-158.837
5830.598	92.958	-157.900
5915.406	93.009	-156.998
6001.447	93.092	-156.151
6088.740	93.193	-155.383
6177.303	93.298	-154.719
6267.154	93.413	-154.185
6358.312	93.549	-153.824
6450.796	93.705	-153.680
6544.625	93.867	-153.797
6639.818	94.023	-154.215
6736.397	94.159	-154.957
6834.380	94.260	-156.002
6933.789	94.314	-157.273
7034.643	94.313	-158.640
7136.964	94.252	-159.947
7240.773	94.134	-161.041
7346.093	93.985	-161.791
7452.944	93.846	-162.127
7561.350	93.760	-162.070
7671.332	93.761	-161.728
7782.915	93.868	-161.317
7896.120	94.085	-161.177
8010.971	94.379	-161.773
8127.493	94.652	-163.607
8245.711	94.762	-166.968
8365.647	94.573	-171.481
8487.328	93.994	-175.814
8610.779	93.056	-178.176
8736.026	91.942	-177.432
8863.095	90.918	-173.749
8992.011	90.209	-168.237
9122.803	89.898	-162.206
9255.497	89.930	-156.626
9390.121	90.198	-151.852
9526.704	90.654	-147.770
9665.273	91.321	-144.507
9805.857	92.176	-142.679
9948.487	93.140	-142.870
10093.191	94.110	-145.463
10240.000	94.958	-150.641
10388.944	95.525	-158.113
10540.055	95.671	-166.866
10693.363	95.356	-175.380
10848.902	94.661	177.698
11006.703	93.735	173.013
11166.799	92.740	170.523
11329.224	91.806	169.842
11494.012	91.007	170.527
11661.195	90.354	172.185
11830.812	89.854	174.500
12002.895	89.532	177.204
12177.480	89.403	-179.975
12354.606	89.473	-177.363
12534.309	89.749	-175.404
12716.624	90.236	-174.742
12901.592	90.903	-176.328
13089.250	91.609	178.615
13279.637	92.092	169.366
13472.794	92.069	156.979
13668.760	91.418	144.585
13867.577	90.225	135.401
14069.285	88.709	130.600
14273.928	87.058	129.522
14481.547	85.384	130.993
14692.186	83.783	134.067
14905.889	82.338	138.085
15122.700	81.114	142.612
15342.664	80.180	147.392
15565.829	79.602	152.169
15792.239	79.410	156.659
16021.942	79.574	160.440
16254.986	80.012	162.839
16491.422	80.651	162.725
16731.295	81.352	158.310
16974.656	81.786	147.787
17221.559	81.454	131.947
17472.053	80.011	115.898
17726.189	77.537	104.917
17984.021	74.452	99.974
18245.605	71.250	99.153
18510.994	68.266	100.254
18780.242	65.625	100.449
19053.408	63.224	89.402
19330.547	60.661	7.816
19611.715	57.402	-2.121
19896.975	53.495	-31.612
