* Measurement data measured by REW V5,19
* Source: Input device not selected, no input selected, R, volume: no control
* Format: 256k Log Swept Sine, 1 sweep at -12,0 dBFS  With no timing reference
* Dated: 31.08.2021 20:00:23
* REW Settings:
*  C-weighting compensation: On
*  Target level: 75.0 dB
* Note: ; 
* Measurement: CX 3.00 L
* Smoothing: 1/24 octave
* Frequency Step: 1/48 octave
* Start Frequency: 20.3 Hz
*
* Freq(Hz)	SPL(dB)	Phase(degrees)
20.291	82.253	-82.969
20.586	82.334	-83.543
20.885	82.502	-84.600
21.189	82.659	-85.615
21.497	82.802	-86.543
21.810	82.940	-87.431
22.127	83.076	-88.306
22.449	83.212	-89.174
22.776	83.345	-90.029
23.107	83.474	-90.875
23.443	83.600	-91.713
23.784	83.723	-92.546
24.130	83.843	-93.376
24.481	83.958	-94.209
24.837	84.069	-95.050
25.198	84.174	-95.901
25.565	84.274	-96.762
25.937	84.370	-97.631
26.314	84.461	-98.501
26.697	84.547	-99.364
27.085	84.627	-100.218
27.479	84.706	-101.060
27.879	84.783	-101.898
28.284	84.863	-102.739
28.696	84.945	-103.596
29.113	85.030	-104.477
29.537	85.117	-105.383
29.966	85.202	-106.311
30.402	85.287	-107.247
30.844	85.371	-108.174
31.293	85.452	-109.074
31.748	85.525	-109.938
32.210	85.592	-110.767
32.678	85.660	-111.581
33.154	85.732	-112.401
33.636	85.808	-113.247
34.125	85.885	-114.125
34.621	85.958	-115.024
35.125	86.026	-115.925
35.636	86.091	-116.813
36.154	86.158	-117.682
36.680	86.230	-118.541
37.214	86.308	-119.406
37.755	86.386	-120.306
38.304	86.458	-121.265
38.861	86.517	-122.292
39.427	86.559	-123.364
40.000	86.585	-124.421
40.582	86.599	-125.388
41.172	86.612	-126.209
41.771	86.636	-126.883
42.379	86.680	-127.468
42.995	86.744	-128.061
43.620	86.817	-128.744
44.255	86.886	-129.542
44.898	86.941	-130.405
45.552	86.986	-131.245
46.214	87.034	-132.015
46.886	87.099	-132.763
47.568	87.179	-133.603
48.260	87.248	-134.602
48.962	87.275	-135.694
49.674	87.260	-136.739
50.397	87.234	-137.648
51.130	87.221	-138.448
51.874	87.223	-139.194
52.628	87.228	-139.880
53.394	87.236	-140.473
54.170	87.263	-140.996
54.958	87.318	-141.545
55.758	87.392	-142.213
56.569	87.465	-143.037
57.391	87.517	-143.995
58.226	87.540	-145.018
59.073	87.538	-145.993
59.932	87.522	-146.816
60.804	87.507	-147.453
61.688	87.506	-147.959
62.586	87.528	-148.427
63.496	87.575	-148.959
64.420	87.630	-149.623
65.357	87.673	-150.418
66.307	87.694	-151.278
67.272	87.696	-152.122
68.250	87.685	-152.901
69.243	87.666	-153.613
70.250	87.645	-154.277
71.272	87.626	-154.910
72.309	87.612	-155.523
73.360	87.607	-156.144
74.427	87.610	-156.790
75.510	87.612	-157.463
76.608	87.611	-158.154
77.723	87.608	-158.871
78.853	87.606	-159.623
80.000	87.603	-160.415
81.164	87.602	-161.250
82.344	87.600	-162.127
83.542	87.591	-163.017
84.757	87.574	-163.866
85.990	87.549	-164.627
87.241	87.519	-165.277
88.510	87.487	-165.832
89.797	87.460	-166.327
91.103	87.442	-166.773
92.428	87.431	-167.169
93.773	87.425	-167.550
95.137	87.420	-167.980
96.520	87.405	-168.475
97.924	87.376	-168.976
99.349	87.350	-169.489
100.794	87.332	-170.124
102.260	87.310	-170.850
103.747	87.284	-171.521
105.256	87.260	-172.118
106.787	87.230	-172.689
108.340	87.187	-173.258
109.916	87.137	-173.825
111.515	87.093	-174.349
113.137	87.068	-174.807
114.783	87.059	-175.249
116.452	87.050	-175.689
118.146	87.034	-176.121
119.865	87.006	-176.572
121.608	86.967	-177.038
123.377	86.927	-177.474
125.171	86.899	-177.866
126.992	86.883	-178.271
128.839	86.868	-178.742
130.713	86.840	-179.278
132.615	86.801	-179.832
134.543	86.760	179.631
136.500	86.716	179.106
138.486	86.663	178.592
140.500	86.602	178.094
142.544	86.544	177.613
144.617	86.490	177.132
146.721	86.428	176.639
148.855	86.353	176.178
151.020	86.281	175.834
153.217	86.229	175.555
155.445	86.178	175.277
157.706	86.114	175.045
160.000	86.035	174.888
162.327	85.944	174.832
164.688	85.851	174.925
167.084	85.758	175.241
169.514	85.674	175.836
171.980	85.629	176.646
174.481	85.659	177.385
177.019	85.753	177.673
179.594	85.867	177.311
182.206	85.958	176.459
184.856	86.007	175.450
187.545	86.006	174.528
190.273	85.970	173.778
193.041	85.925	173.186
195.849	85.881	172.691
198.697	85.832	172.236
201.587	85.774	171.801
204.520	85.716	171.394
207.494	85.657	171.025
210.512	85.593	170.746
213.574	85.532	170.583
216.681	85.486	170.486
219.833	85.455	170.364
223.030	85.435	170.119
226.274	85.415	169.710
229.565	85.376	169.188
232.905	85.315	168.680
236.292	85.243	168.260
239.729	85.167	167.924
243.216	85.096	167.666
246.754	85.029	167.463
250.343	84.958	167.245
253.984	84.875	167.023
257.678	84.793	166.842
261.426	84.719	166.685
265.229	84.650	166.542
269.087	84.579	166.417
273.001	84.509	166.309
276.972	84.442	166.213
281.000	84.374	166.130
285.088	84.305	166.062
289.234	84.234	166.004
293.441	84.165	165.946
297.710	84.098	165.893
302.040	84.033	165.865
306.433	83.969	165.856
310.890	83.905	165.852
315.412	83.841	165.853
320.000	83.778	165.859
324.655	83.714	165.876
329.377	83.649	165.899
334.168	83.586	165.927
339.028	83.528	165.952
343.959	83.468	165.966
348.962	83.404	165.993
354.038	83.340	166.085
359.188	83.282	166.209
364.412	83.221	166.318
369.713	83.154	166.417
375.090	83.085	166.524
380.546	83.021	166.641
386.081	82.965	166.768
391.697	82.912	166.909
397.395	82.858	167.063
403.175	82.800	167.215
409.039	82.740	167.367
414.989	82.680	167.526
421.025	82.621	167.699
427.149	82.563	167.893
433.362	82.508	168.104
439.665	82.458	168.332
446.060	82.415	168.580
452.548	82.373	168.810
459.131	82.327	169.022
465.809	82.275	169.254
472.584	82.220	169.507
479.458	82.170	169.771
486.432	82.125	170.056
493.507	82.083	170.368
500.686	82.039	170.676
507.968	81.991	170.964
515.357	81.941	171.265
522.853	81.894	171.586
530.458	81.851	171.924
538.174	81.811	172.276
546.002	81.769	172.644
553.943	81.725	173.013
562.001	81.683	173.380
570.175	81.647	173.767
578.469	81.616	174.171
586.883	81.584	174.571
595.419	81.547	174.970
604.080	81.508	175.407
612.866	81.474	175.891
621.780	81.449	176.373
630.824	81.425	176.844
640.000	81.399	177.324
649.309	81.375	177.817
658.753	81.356	178.335
668.335	81.339	178.868
678.056	81.322	179.404
687.919	81.305	179.969
697.925	81.295	-179.434
708.076	81.287	-178.861
718.376	81.279	-178.302
728.825	81.273	-177.721
739.426	81.269	-177.109
750.181	81.268	-176.463
761.093	81.272	-175.807
772.163	81.275	-175.160
783.394	81.281	-174.513
794.789	81.294	-173.834
806.349	81.316	-173.145
818.078	81.340	-172.466
829.977	81.360	-171.774
842.050	81.381	-171.075
854.297	81.409	-170.382
866.724	81.446	-169.698
879.330	81.489	-169.036
892.120	81.537	-168.384
905.097	81.585	-167.709
918.262	81.633	-167.035
931.618	81.684	-166.399
945.169	81.741	-165.792
958.917	81.807	-165.213
972.864	81.878	-164.675
987.015	81.955	-164.177
1001.371	82.035	-163.704
1015.937	82.116	-163.252
1030.714	82.197	-162.842
1045.706	82.277	-162.484
1060.916	82.352	-162.178
1076.347	82.426	-161.904
1092.003	82.502	-161.659
1107.887	82.579	-161.460
1124.001	82.654	-161.309
1140.350	82.730	-161.196
1156.937	82.802	-161.094
1173.765	82.870	-160.999
1190.838	82.935	-160.924
1208.159	83.000	-160.858
1225.732	83.062	-160.791
1243.561	83.119	-160.716
1261.649	83.168	-160.634
1280.000	83.213	-160.528
1298.618	83.256	-160.401
1317.507	83.296	-160.261
1336.670	83.329	-160.111
1356.113	83.353	-159.909
1375.838	83.369	-159.546
1395.850	83.386	-158.924
1416.153	83.431	-158.083
1436.751	83.521	-157.246
1457.649	83.641	-156.622
1478.851	83.759	-156.156
1500.362	83.874	-155.639
1522.185	84.019	-155.054
1544.326	84.211	-154.670
1566.789	84.415	-154.724
1589.578	84.591	-155.145
1612.699	84.728	-155.687
1636.156	84.846	-156.203
1659.955	84.953	-156.665
1684.099	85.048	-157.067
1708.595	85.123	-157.402
1733.447	85.185	-157.672
1758.661	85.242	-157.888
1784.241	85.296	-158.057
1810.193	85.350	-158.173
1836.523	85.411	-158.247
1863.236	85.481	-158.293
1890.338	85.557	-158.337
1917.833	85.632	-158.421
1945.729	85.703	-158.552
1974.030	85.770	-158.710
2002.743	85.834	-158.869
2031.873	85.892	-159.026
2061.428	85.943	-159.193
2091.412	85.994	-159.362
2121.832	86.045	-159.531
2152.695	86.092	-159.710
2184.007	86.133	-159.900
2215.774	86.168	-160.090
2248.003	86.197	-160.280
2280.701	86.219	-160.469
2313.874	86.233	-160.639
2347.530	86.237	-160.762
2381.676	86.226	-160.790
2416.318	86.204	-160.659
2451.464	86.188	-160.290
2487.122	86.206	-159.671
2523.298	86.286	-158.977
2560.000	86.428	-158.511
2597.236	86.594	-158.475
2635.014	86.744	-158.824
2673.341	86.863	-159.405
2712.226	86.952	-160.100
2751.676	87.008	-160.828
2791.700	87.033	-161.532
2832.306	87.034	-162.185
2873.503	87.020	-162.784
2915.299	86.995	-163.338
2957.703	86.963	-163.853
3000.724	86.927	-164.328
3044.370	86.888	-164.766
3088.652	86.848	-165.178
3133.577	86.804	-165.562
3179.156	86.755	-165.915
3225.398	86.703	-166.237
3272.312	86.653	-166.533
3319.909	86.604	-166.801
3368.198	86.558	-167.038
3417.190	86.519	-167.248
3466.894	86.485	-167.432
3517.321	86.445	-167.574
3568.482	86.389	-167.630
3620.387	86.320	-167.496
3673.046	86.275	-167.143
3726.472	86.278	-166.892
3780.675	86.280	-166.948
3835.666	86.245	-167.043
3891.457	86.192	-166.935
3948.060	86.155	-166.552
4005.486	86.160	-166.049
4063.747	86.176	-165.738
4122.855	86.147	-165.612
4182.824	86.066	-165.477
4243.664	85.952	-165.269
4305.390	85.824	-165.001
4368.013	85.695	-164.697
4431.547	85.572	-164.373
4496.005	85.456	-164.037
4561.401	85.345	-163.703
4627.749	85.242	-163.376
4695.061	85.148	-163.056
4763.352	85.063	-162.757
4832.637	84.987	-162.488
4902.929	84.918	-162.253
4974.244	84.851	-162.061
5046.596	84.780	-161.917
5120.000	84.698	-161.810
5194.472	84.601	-161.727
5270.027	84.476	-161.653
5346.682	84.312	-161.558
5424.451	84.102	-161.387
5503.352	83.842	-161.063
5583.399	83.528	-160.480
5664.612	83.164	-159.517
5747.006	82.754	-158.030
5830.598	82.322	-155.865
5915.406	81.898	-152.877
6001.447	81.516	-148.976
6088.740	81.217	-144.174
6177.303	81.055	-138.610
6267.154	81.074	-132.565
6358.312	81.297	-126.408
6450.796	81.720	-120.504
6544.625	82.319	-115.138
6639.818	83.057	-110.503
6736.397	83.901	-106.697
6834.380	84.835	-103.752
6933.789	85.843	-101.668
7034.643	86.908	-100.459
7136.964	88.017	-100.175
7240.773	89.156	-100.914
7346.093	90.316	-102.806
7452.944	91.481	-105.991
7561.350	92.618	-110.609
7671.332	93.671	-116.746
7782.915	94.556	-124.353
7896.120	95.187	-133.200
8010.971	95.500	-142.848
8127.493	95.446	-152.657
8245.711	95.008	-161.847
8365.647	94.221	-169.628
8487.328	93.177	-175.379
8610.779	91.994	-178.811
8736.026	90.789	179.980
8863.095	89.651	-179.391
8992.011	88.634	-177.242
9122.803	87.797	-173.592
9255.497	87.279	-168.875
9390.121	87.133	-164.353
9526.704	87.231	-160.867
9665.273	87.457	-158.330
9805.857	87.779	-156.551
9948.487	88.195	-155.591
10093.191	88.692	-155.667
10240.000	89.247	-157.045
10388.944	89.810	-159.952
10540.055	90.284	-164.454
10693.363	90.542	-170.315
10848.902	90.496	-176.928
11006.703	90.135	176.571
11166.799	89.513	170.997
11329.224	88.732	166.845
11494.012	87.904	164.227
11661.195	87.105	162.981
11830.812	86.374	162.816
12002.895	85.747	163.397
12177.480	85.279	164.376
12354.606	85.007	165.404
12534.309	84.901	166.103
12716.624	84.916	166.025
12901.592	85.007	164.666
13089.250	85.103	161.578
13279.637	85.109	156.547
13472.794	84.960	149.918
13668.760	84.662	142.804
13867.577	84.228	136.579
14069.285	83.585	132.233
14273.928	82.667	130.062
14481.547	81.521	129.880
14692.186	80.277	131.362
14905.889	79.104	134.158
15122.700	78.145	137.867
15342.664	77.512	142.059
15565.829	77.352	146.152
15792.239	77.690	149.277
16021.942	78.369	151.030
16254.986	79.253	150.960
16491.422	80.216	147.502
16731.295	81.010	138.436
16974.656	81.187	123.138
17221.559	80.332	105.339
17472.053	78.365	91.168
17726.189	75.598	83.495
17984.021	72.554	80.963
18245.605	69.643	81.042
18510.994	67.026	81.963
18780.242	64.697	82.474
19053.408	62.546	80.696
19330.547	60.301	71.209
19611.715	57.399	39.248
19896.975	53.697	-19.191
