* Measurement data measured by REW V5,19
* Source: Input device not selected, no input selected, R, volume: no control
* Format: 256k Log Swept Sine, 1 sweep at -12,0 dBFS  With no timing reference
* Dated: 31.08.2021 20:03:03
* REW Settings:
*  C-weighting compensation: On
*  Target level: 75.0 dB
* Note: ; 
* Measurement: CX 3.00 R
* Smoothing: 1/24 octave
* Frequency Step: 1/48 octave
* Start Frequency: 20.3 Hz
*
* Freq(Hz)	SPL(dB)	Phase(degrees)
20.291	88.843	-122.786
20.586	88.895	-123.292
20.885	89.002	-124.218
21.189	89.099	-125.101
21.497	89.185	-125.896
21.810	89.266	-126.646
22.127	89.345	-127.376
22.449	89.424	-128.093
22.776	89.501	-128.793
23.107	89.574	-129.482
23.443	89.645	-130.165
23.784	89.713	-130.843
24.130	89.778	-131.521
24.481	89.837	-132.200
24.837	89.892	-132.881
25.198	89.941	-133.567
25.565	89.986	-134.257
25.937	90.028	-134.952
26.314	90.066	-135.651
26.697	90.100	-136.354
27.085	90.129	-137.059
27.479	90.155	-137.767
27.879	90.179	-138.476
28.284	90.201	-139.186
28.696	90.223	-139.899
29.113	90.249	-140.614
29.537	90.277	-141.332
29.966	90.308	-142.054
30.402	90.342	-142.780
30.844	90.380	-143.510
31.293	90.418	-144.243
31.748	90.450	-144.978
32.210	90.472	-145.713
32.678	90.489	-146.447
33.154	90.506	-147.182
33.636	90.523	-147.916
34.125	90.541	-148.650
34.621	90.557	-149.384
35.125	90.573	-150.117
35.636	90.586	-150.849
36.154	90.601	-151.578
36.680	90.618	-152.304
37.214	90.636	-153.027
37.755	90.651	-153.748
38.304	90.658	-154.466
38.861	90.659	-155.184
39.427	90.655	-155.900
40.000	90.653	-156.613
40.582	90.654	-157.323
41.172	90.660	-158.030
41.771	90.669	-158.733
42.379	90.677	-159.433
42.995	90.683	-160.129
43.620	90.684	-160.820
44.255	90.680	-161.506
44.898	90.673	-162.189
45.552	90.666	-162.870
46.214	90.661	-163.548
46.886	90.659	-164.214
47.568	90.658	-164.848
48.260	90.653	-165.436
48.962	90.639	-165.993
49.674	90.622	-166.572
50.397	90.612	-167.229
51.130	90.608	-167.969
51.874	90.603	-168.743
52.628	90.589	-169.495
53.394	90.569	-170.204
54.170	90.549	-170.884
54.958	90.533	-171.550
55.758	90.520	-172.210
56.569	90.503	-172.861
57.391	90.479	-173.506
58.226	90.448	-174.146
59.073	90.417	-174.779
59.932	90.391	-175.404
60.804	90.364	-176.019
61.688	90.336	-176.628
62.586	90.309	-177.231
63.496	90.287	-177.828
64.420	90.267	-178.421
65.357	90.244	-179.020
66.307	90.214	-179.625
67.272	90.181	179.777
68.250	90.146	179.195
69.243	90.106	178.617
70.250	90.064	178.030
71.272	90.020	177.437
72.309	89.974	176.860
73.360	89.931	176.313
74.427	89.895	175.786
75.510	89.860	175.263
76.608	89.821	174.737
77.723	89.779	174.208
78.853	89.732	173.679
80.000	89.681	173.155
81.164	89.631	172.641
82.344	89.583	172.136
83.542	89.536	171.632
84.757	89.489	171.128
85.990	89.439	170.632
87.241	89.382	170.150
88.510	89.319	169.681
89.797	89.255	169.220
91.103	89.199	168.763
92.428	89.150	168.302
93.773	89.100	167.841
95.137	89.050	167.386
96.520	88.996	166.921
97.924	88.929	166.448
99.349	88.848	166.041
100.794	88.774	165.717
102.260	88.721	165.374
103.747	88.677	164.973
105.256	88.630	164.573
106.787	88.577	164.194
108.340	88.514	163.801
109.916	88.442	163.400
111.515	88.374	163.031
113.137	88.318	162.666
114.783	88.262	162.254
116.452	88.193	161.829
118.146	88.114	161.448
119.865	88.031	161.103
121.608	87.947	160.778
123.377	87.867	160.485
125.171	87.792	160.190
126.992	87.708	159.885
128.839	87.613	159.609
130.713	87.512	159.357
132.615	87.411	159.125
134.543	87.317	158.914
136.500	87.222	158.696
138.486	87.108	158.517
140.500	86.982	158.451
142.544	86.864	158.480
144.617	86.752	158.574
146.721	86.633	158.789
148.855	86.523	159.229
151.020	86.463	159.833
153.217	86.461	160.372
155.445	86.488	160.741
157.706	86.516	160.945
160.000	86.530	161.036
162.327	86.532	161.110
164.688	86.539	161.212
167.084	86.555	161.291
169.514	86.565	161.281
171.980	86.559	161.147
174.481	86.538	160.896
177.019	86.507	160.538
179.594	86.475	160.090
182.206	86.460	159.588
184.856	86.461	159.027
187.545	86.452	158.384
190.273	86.411	157.706
193.041	86.346	157.072
195.849	86.263	156.510
198.697	86.160	156.050
201.587	86.049	155.697
204.520	85.942	155.423
207.494	85.841	155.234
210.512	85.743	155.126
213.574	85.649	155.075
216.681	85.560	155.059
219.833	85.474	155.052
223.030	85.395	155.029
226.274	85.325	154.968
229.565	85.254	154.860
232.905	85.176	154.724
236.292	85.089	154.600
239.729	84.994	154.545
243.216	84.903	154.573
246.754	84.821	154.647
250.343	84.738	154.679
253.984	84.646	154.664
257.678	84.552	154.678
261.426	84.463	154.721
265.229	84.379	154.785
269.087	84.295	154.864
273.001	84.214	154.955
276.972	84.136	155.055
281.000	84.056	155.165
285.088	83.975	155.289
289.234	83.893	155.428
293.441	83.813	155.582
297.710	83.735	155.748
302.040	83.660	155.912
306.433	83.585	156.072
310.890	83.511	156.240
315.412	83.437	156.418
320.000	83.365	156.599
324.655	83.291	156.788
329.377	83.215	156.992
334.168	83.144	157.206
339.028	83.079	157.439
343.959	83.015	157.689
348.962	82.948	157.932
354.038	82.876	158.170
359.188	82.806	158.427
364.412	82.736	158.695
369.713	82.663	158.971
375.090	82.590	159.254
380.546	82.523	159.539
386.081	82.464	159.830
391.697	82.408	160.136
397.395	82.352	160.448
403.175	82.290	160.760
409.039	82.225	161.083
414.989	82.160	161.416
421.025	82.096	161.758
427.149	82.034	162.112
433.362	81.974	162.475
439.665	81.918	162.833
446.060	81.865	163.191
452.548	81.820	163.584
459.131	81.781	163.998
465.809	81.734	164.411
472.584	81.681	164.816
479.458	81.631	165.220
486.432	81.586	165.645
493.507	81.542	166.109
500.686	81.499	166.568
507.968	81.450	166.994
515.357	81.401	167.433
522.853	81.354	167.900
530.458	81.312	168.377
538.174	81.274	168.856
546.002	81.235	169.345
553.943	81.191	169.848
562.001	81.149	170.371
570.175	81.115	170.901
578.469	81.087	171.438
586.883	81.059	171.992
595.419	81.026	172.567
604.080	80.990	173.130
612.866	80.956	173.685
621.780	80.932	174.261
630.824	80.910	174.857
640.000	80.887	175.468
649.309	80.866	176.090
658.753	80.849	176.716
668.335	80.834	177.358
678.056	80.816	178.010
687.919	80.795	178.658
697.925	80.780	179.318
708.076	80.779	-179.991
718.376	80.784	-179.278
728.825	80.787	-178.550
739.426	80.789	-177.816
750.181	80.794	-177.080
761.093	80.802	-176.347
772.163	80.811	-175.602
783.394	80.823	-174.844
794.789	80.843	-174.075
806.349	80.869	-173.285
818.078	80.892	-172.490
829.977	80.913	-171.709
842.050	80.936	-170.941
854.297	80.968	-170.153
866.724	81.010	-169.337
879.330	81.057	-168.533
892.120	81.106	-167.754
905.097	81.161	-166.997
918.262	81.221	-166.254
931.618	81.279	-165.532
945.169	81.339	-164.839
958.917	81.409	-164.153
972.864	81.488	-163.491
987.015	81.571	-162.867
1001.371	81.656	-162.285
1015.937	81.740	-161.752
1030.714	81.824	-161.267
1045.706	81.908	-160.823
1060.916	81.995	-160.401
1076.347	82.082	-160.016
1092.003	82.169	-159.676
1107.887	82.256	-159.383
1124.001	82.343	-159.134
1140.350	82.428	-158.919
1156.937	82.512	-158.728
1173.765	82.597	-158.560
1190.838	82.681	-158.418
1208.159	82.762	-158.293
1225.732	82.841	-158.175
1243.561	82.915	-158.072
1261.649	82.982	-157.996
1280.000	83.041	-157.928
1298.618	83.096	-157.849
1317.507	83.149	-157.756
1336.670	83.196	-157.651
1356.113	83.240	-157.529
1375.838	83.278	-157.370
1395.850	83.298	-157.144
1416.153	83.301	-156.799
1436.751	83.293	-156.271
1457.649	83.289	-155.492
1478.851	83.312	-154.399
1500.362	83.400	-153.047
1522.185	83.589	-151.743
1544.326	83.858	-150.980
1566.789	84.129	-151.023
1589.578	84.333	-151.625
1612.699	84.460	-152.321
1636.156	84.545	-152.807
1659.955	84.627	-153.032
1684.099	84.721	-153.090
1708.595	84.824	-153.126
1733.447	84.924	-153.242
1758.661	85.013	-153.435
1784.241	85.087	-153.640
1810.193	85.149	-153.791
1836.523	85.211	-153.876
1863.236	85.275	-153.904
1890.338	85.340	-153.882
1917.833	85.407	-153.827
1945.729	85.475	-153.763
1974.030	85.550	-153.716
2002.743	85.631	-153.715
2031.873	85.711	-153.776
2061.428	85.783	-153.890
2091.412	85.849	-154.033
2121.832	85.910	-154.181
2152.695	85.965	-154.329
2184.007	86.013	-154.477
2215.774	86.055	-154.629
2248.003	86.093	-154.787
2280.701	86.123	-154.943
2313.874	86.147	-155.098
2347.530	86.162	-155.246
2381.676	86.164	-155.357
2416.318	86.148	-155.397
2451.464	86.118	-155.315
2487.122	86.081	-155.032
2523.298	86.057	-154.468
2560.000	86.080	-153.643
2597.236	86.177	-152.783
2635.014	86.337	-152.259
2673.341	86.514	-152.287
2712.226	86.661	-152.763
2751.676	86.753	-153.439
2791.700	86.794	-154.129
2832.306	86.799	-154.747
2873.503	86.779	-155.273
2915.299	86.742	-155.706
2957.703	86.697	-156.056
3000.724	86.648	-156.333
3044.370	86.598	-156.541
3088.652	86.547	-156.686
3133.577	86.497	-156.784
3179.156	86.444	-156.848
3225.398	86.391	-156.880
3272.312	86.338	-156.883
3319.909	86.286	-156.850
3368.198	86.238	-156.779
3417.190	86.194	-156.663
3466.894	86.151	-156.472
3517.321	86.100	-156.130
3568.482	86.058	-155.573
3620.387	86.046	-154.974
3673.046	86.039	-154.519
3726.472	86.017	-154.033
3780.675	86.008	-153.457
3835.666	86.011	-152.937
3891.457	86.009	-152.432
3948.060	86.006	-151.833
4005.486	86.003	-151.124
4063.747	85.987	-150.324
4122.855	85.949	-149.451
4182.824	85.887	-148.520
4243.664	85.806	-147.540
4305.390	85.716	-146.514
4368.013	85.630	-145.433
4431.547	85.554	-144.293
4496.005	85.492	-143.098
4561.401	85.444	-141.852
4627.749	85.416	-140.553
4695.061	85.407	-139.206
4763.352	85.418	-137.818
4832.637	85.453	-136.391
4902.929	85.514	-134.929
4974.244	85.598	-133.430
5046.596	85.706	-131.895
5120.000	85.838	-130.329
5194.472	85.993	-128.738
5270.027	86.168	-127.131
5346.682	86.360	-125.517
5424.451	86.568	-123.901
5503.352	86.796	-122.293
5583.399	87.047	-120.708
5664.612	87.324	-119.169
5747.006	87.633	-117.696
5830.598	87.984	-116.317
5915.406	88.382	-115.065
6001.447	88.823	-113.981
6088.740	89.305	-113.112
6177.303	89.830	-112.522
6267.154	90.400	-112.295
6358.312	91.015	-112.527
6450.796	91.670	-113.328
6544.625	92.353	-114.830
6639.818	93.040	-117.172
6736.397	93.698	-120.464
6834.380	94.291	-124.725
6933.789	94.775	-129.856
7034.643	95.104	-135.600
7136.964	95.256	-141.566
7240.773	95.235	-147.328
7346.093	95.071	-152.517
7452.944	94.823	-156.897
7561.350	94.562	-160.412
7671.332	94.355	-163.184
7782.915	94.235	-165.503
7896.120	94.194	-167.809
8010.971	94.200	-170.643
8127.493	94.165	-174.533
8245.711	93.943	-179.678
8365.647	93.390	174.523
8487.328	92.432	169.623
8610.779	91.134	167.407
8736.026	89.709	168.736
8863.095	88.438	173.131
8992.011	87.553	179.313
9122.803	87.135	-174.064
9255.497	87.131	-168.016
9390.121	87.413	-163.121
9526.704	87.880	-159.414
9665.273	88.542	-156.691
9805.857	89.437	-155.463
9948.487	90.469	-156.815
10093.191	91.435	-161.525
10240.000	92.114	-169.638
10388.944	92.316	179.935
10540.055	91.949	169.355
10693.363	91.062	160.767
10848.902	89.825	155.208
11006.703	88.454	152.565
11166.799	87.129	152.193
11329.224	85.960	153.425
11494.012	84.996	155.746
11661.195	84.234	158.798
11830.812	83.650	162.336
12002.895	83.254	166.149
12177.480	83.099	170.001
12354.606	83.231	173.576
12534.309	83.647	176.417
12716.624	84.336	177.790
12901.592	85.261	176.494
13089.250	86.229	170.846
13279.637	86.864	159.735
13472.794	86.803	144.761
13668.760	85.948	130.526
13867.577	84.545	121.079
14069.285	82.919	117.128
14273.928	81.241	117.246
14481.547	79.583	119.909
14692.186	78.020	124.100
14905.889	76.652	129.147
15122.700	75.543	134.604
15342.664	74.742	140.211
15565.829	74.342	145.743
15792.239	74.413	150.965
16021.942	74.900	155.489
16254.986	75.671	158.637
16491.422	76.636	159.125
16731.295	77.673	154.877
16974.656	78.429	143.882
17221.559	78.361	126.955
17472.053	77.095	109.651
17726.189	74.733	97.781
17984.021	71.772	92.321
18245.605	68.753	91.166
18510.994	66.053	92.004
18780.242	63.775	92.619
19053.408	61.806	90.531
19330.547	59.855	83.241
19611.715	57.457	69.926
19896.975	54.642	56.133
