* Measurement data measured by REW V5,19
* Source: Input device not selected, no input selected, R, volume: no control
* Format: 256k Log Swept Sine, 1 sweep at -12,0 dBFS  With no timing reference
* Dated: 06.09.2021 2:15:58
* REW Settings:
*  C-weighting compensation: On
*  Target level: 75.0 dB
* Note: ; 
* Measurement: E12 Ultra L
* Smoothing: 1/24 octave
* Frequency Step: 1/48 octave
* Start Frequency: 20.3 Hz
*
* Freq(Hz)	SPL(dB)	Phase(degrees)
20.291	104.650	-101.422
20.586	104.673	-101.915
20.885	104.719	-102.857
21.189	104.760	-103.853
21.497	104.790	-104.827
21.810	104.806	-105.765
22.127	104.813	-106.668
22.449	104.818	-107.540
22.776	104.832	-108.404
23.107	104.862	-109.301
23.443	104.909	-110.279
23.784	104.964	-111.363
24.130	105.011	-112.544
24.481	105.042	-113.780
24.837	105.056	-115.018
25.198	105.063	-116.213
25.565	105.075	-117.355
25.937	105.094	-118.460
26.314	105.118	-119.561
26.697	105.137	-120.673
27.085	105.143	-121.782
27.479	105.137	-122.855
27.879	105.127	-123.867
28.284	105.127	-124.825
28.696	105.141	-125.771
29.113	105.156	-126.755
29.537	105.157	-127.793
29.966	105.138	-128.855
30.402	105.111	-129.886
30.844	105.090	-130.853
31.293	105.078	-131.770
31.748	105.072	-132.688
32.210	105.068	-133.654
32.678	105.066	-134.677
33.154	105.062	-135.732
33.636	105.049	-136.785
34.125	105.032	-137.818
34.621	105.019	-138.833
35.125	105.015	-139.836
35.636	105.011	-140.829
36.154	105.004	-141.816
36.680	105.001	-142.809
37.214	105.004	-143.817
37.755	105.002	-144.834
38.304	104.989	-145.837
38.861	104.973	-146.807
39.427	104.960	-147.748
40.000	104.946	-148.682
40.582	104.923	-149.621
41.172	104.896	-150.549
41.771	104.878	-151.452
42.379	104.880	-152.365
42.995	104.882	-153.353
43.620	104.861	-154.399
44.255	104.815	-155.386
44.898	104.779	-156.258
45.552	104.775	-157.119
46.214	104.784	-158.042
46.886	104.780	-158.947
47.568	104.766	-159.807
48.260	104.740	-160.761
48.962	104.687	-161.777
49.674	104.624	-162.626
50.397	104.596	-163.315
51.130	104.597	-164.105
51.874	104.587	-165.050
52.628	104.554	-166.007
53.394	104.518	-166.945
54.170	104.492	-167.840
54.958	104.487	-168.624
55.758	104.498	-169.395
56.569	104.494	-170.213
57.391	104.461	-170.940
58.226	104.417	-171.616
59.073	104.351	-172.398
59.932	104.260	-173.179
60.804	104.178	-173.898
61.688	104.126	-174.713
62.586	104.096	-175.619
63.496	104.101	-176.573
64.420	104.116	-177.622
65.357	104.102	-178.513
66.307	104.090	-179.048
67.272	104.099	-179.544
68.250	104.081	179.816
69.243	104.027	179.192
70.250	103.959	178.512
71.272	103.876	177.828
72.309	103.829	177.224
73.360	103.833	176.311
74.427	103.809	175.043
75.510	103.717	173.986
76.608	103.613	173.418
77.723	103.529	172.970
78.853	103.442	172.470
80.000	103.360	171.910
81.164	103.269	171.261
82.344	103.180	170.688
83.542	103.123	170.089
84.757	103.088	169.453
85.990	103.056	168.750
87.241	102.999	168.086
88.510	102.941	167.452
89.797	102.865	166.707
91.103	102.785	166.147
92.428	102.757	165.478
93.773	102.701	164.561
95.137	102.630	164.064
96.520	102.626	163.677
97.924	102.643	163.038
99.349	102.633	162.267
100.794	102.579	161.680
102.260	102.520	161.389
103.747	102.458	161.060
105.256	102.368	160.641
106.787	102.258	160.112
108.340	102.157	159.539
109.916	102.082	158.757
111.515	102.009	158.007
113.137	101.959	157.426
114.783	101.920	156.925
116.452	101.866	156.425
118.146	101.780	155.995
119.865	101.685	155.603
121.608	101.588	155.135
123.377	101.496	154.648
125.171	101.418	154.191
126.992	101.342	153.728
128.839	101.246	153.282
130.713	101.131	152.874
132.615	101.021	152.484
134.543	100.926	152.097
136.500	100.839	151.727
138.486	100.755	151.384
140.500	100.669	151.057
142.544	100.586	150.663
144.617	100.496	150.235
146.721	100.398	149.887
148.855	100.313	149.697
151.020	100.262	149.470
153.217	100.231	149.087
155.445	100.207	148.697
157.706	100.176	148.365
160.000	100.121	148.078
162.327	100.044	147.761
164.688	99.961	147.434
167.084	99.875	147.087
169.514	99.775	146.766
171.980	99.656	146.458
174.481	99.525	146.165
177.019	99.397	145.883
179.594	99.279	145.610
182.206	99.177	145.354
184.856	99.082	145.108
187.545	98.988	144.876
190.273	98.893	144.647
193.041	98.800	144.430
195.849	98.707	144.231
198.697	98.611	144.051
201.587	98.516	143.886
204.520	98.426	143.725
207.494	98.335	143.576
210.512	98.241	143.445
213.574	98.148	143.309
216.681	98.058	143.174
219.833	97.968	143.056
223.030	97.869	142.952
226.274	97.769	142.854
229.565	97.678	142.763
232.905	97.590	142.669
236.292	97.498	142.574
239.729	97.404	142.485
243.216	97.308	142.400
246.754	97.207	142.296
250.343	97.108	142.224
253.984	97.016	142.216
257.678	96.923	142.199
261.426	96.825	142.171
265.229	96.728	142.169
269.087	96.632	142.175
273.001	96.536	142.184
276.972	96.440	142.207
281.000	96.344	142.241
285.088	96.248	142.280
289.234	96.152	142.337
293.441	96.056	142.410
297.710	95.959	142.485
302.040	95.862	142.562
306.433	95.766	142.648
310.890	95.669	142.747
315.412	95.571	142.860
320.000	95.475	142.984
324.655	95.378	143.119
329.377	95.283	143.268
334.168	95.190	143.430
339.028	95.098	143.600
343.959	95.008	143.779
348.962	94.918	143.962
354.038	94.821	144.148
359.188	94.722	144.342
364.412	94.626	144.549
369.713	94.532	144.769
375.090	94.439	145.002
380.546	94.347	145.246
386.081	94.255	145.504
391.697	94.163	145.783
397.395	94.069	146.085
403.175	93.976	146.361
409.039	93.885	146.633
414.989	93.794	146.934
421.025	93.703	147.256
427.149	93.612	147.593
433.362	93.522	147.941
439.665	93.433	148.313
446.060	93.349	148.732
452.548	93.276	149.124
459.131	93.204	149.468
465.809	93.113	149.842
472.584	93.012	150.250
479.458	92.922	150.678
486.432	92.851	151.122
493.507	92.791	151.572
500.686	92.727	152.033
507.968	92.652	152.519
515.357	92.573	153.021
522.853	92.504	153.534
530.458	92.450	154.062
538.174	92.396	154.593
546.002	92.330	155.115
553.943	92.255	155.678
562.001	92.180	156.286
570.175	92.105	156.896
578.469	92.030	157.507
586.883	91.955	158.121
595.419	91.878	158.742
604.080	91.808	159.406
612.866	91.743	160.113
621.780	91.678	160.823
630.824	91.613	161.539
640.000	91.550	162.269
649.309	91.487	163.017
658.753	91.425	163.784
668.335	91.365	164.573
678.056	91.309	165.379
687.919	91.253	166.199
697.925	91.198	167.035
708.076	91.152	167.892
718.376	91.111	168.769
728.825	91.075	169.664
739.426	91.050	170.579
750.181	91.033	171.514
761.093	91.019	172.458
772.163	91.003	173.419
783.394	90.985	174.409
794.789	90.972	175.427
806.349	90.967	176.441
818.078	90.960	177.446
829.977	90.948	178.473
842.050	90.936	179.514
854.297	90.931	-179.436
866.724	90.943	-178.367
879.330	90.973	-177.296
892.120	91.013	-176.222
905.097	91.051	-175.145
918.262	91.083	-174.074
931.618	91.107	-172.993
945.169	91.132	-171.911
958.917	91.160	-170.871
972.864	91.198	-169.865
987.015	91.248	-168.856
1001.371	91.306	-167.861
1015.937	91.369	-166.893
1030.714	91.434	-165.939
1045.706	91.502	-165.005
1060.916	91.574	-164.076
1076.347	91.647	-163.156
1092.003	91.718	-162.262
1107.887	91.793	-161.378
1124.001	91.871	-160.491
1140.350	91.949	-159.608
1156.937	92.026	-158.736
1173.765	92.103	-157.867
1190.838	92.183	-156.977
1208.159	92.265	-156.057
1225.732	92.352	-155.121
1243.561	92.448	-154.176
1261.649	92.556	-153.225
1280.000	92.679	-152.279
1298.618	92.815	-151.350
1317.507	92.952	-150.441
1336.670	93.086	-149.573
1356.113	93.219	-148.745
1375.838	93.352	-147.964
1395.850	93.484	-147.236
1416.153	93.615	-146.549
1436.751	93.743	-145.886
1457.649	93.867	-145.245
1478.851	93.984	-144.622
1500.362	94.093	-143.980
1522.185	94.196	-143.280
1544.326	94.293	-142.481
1566.789	94.393	-141.523
1589.578	94.516	-140.388
1612.699	94.687	-139.188
1636.156	94.912	-138.186
1659.955	95.162	-137.586
1684.099	95.389	-137.296
1708.595	95.561	-137.033
1733.447	95.680	-136.522
1758.661	95.769	-135.565
1784.241	95.880	-134.068
1810.193	96.087	-132.168
1836.523	96.437	-130.399
1863.236	96.879	-129.446
1890.338	97.295	-129.505
1917.833	97.609	-130.130
1945.729	97.826	-130.767
1974.030	97.983	-131.126
2002.743	98.116	-131.109
2031.873	98.258	-130.693
2061.428	98.446	-129.949
2091.412	98.717	-129.141
2121.832	99.059	-128.678
2152.695	99.413	-128.798
2184.007	99.725	-129.356
2215.774	99.985	-130.050
2248.003	100.212	-130.691
2280.701	100.427	-131.227
2313.874	100.640	-131.656
2347.530	100.855	-131.970
2381.676	101.080	-132.202
2416.318	101.319	-132.456
2451.464	101.569	-132.869
2487.122	101.823	-133.498
2523.298	102.081	-134.303
2560.000	102.330	-135.263
2597.236	102.551	-136.384
2635.014	102.733	-137.592
2673.341	102.887	-138.739
2712.226	103.048	-139.768
2751.676	103.239	-140.830
2791.700	103.446	-142.156
2832.306	103.631	-143.815
2873.503	103.767	-145.689
2915.299	103.850	-147.616
2957.703	103.889	-149.488
3000.724	103.889	-151.260
3044.370	103.851	-152.908
3088.652	103.775	-154.402
3133.577	103.669	-155.726
3179.156	103.548	-156.870
3225.398	103.421	-157.817
3272.312	103.291	-158.554
3319.909	103.162	-159.072
3368.198	103.042	-159.371
3417.190	102.946	-159.475
3466.894	102.875	-159.442
3517.321	102.809	-159.334
3568.482	102.739	-159.162
3620.387	102.671	-158.904
3673.046	102.612	-158.542
3726.472	102.567	-158.078
3780.675	102.541	-157.533
3835.666	102.541	-156.930
3891.457	102.575	-156.274
3948.060	102.638	-155.566
4005.486	102.718	-154.807
4063.747	102.804	-154.010
4122.855	102.892	-153.196
4182.824	102.980	-152.389
4243.664	103.076	-151.621
4305.390	103.188	-150.936
4368.013	103.324	-150.378
4431.547	103.487	-149.976
4496.005	103.694	-149.758
4561.401	103.951	-149.767
4627.749	104.240	-150.067
4695.061	104.543	-150.740
4763.352	104.859	-151.865
4832.637	105.174	-153.509
4902.929	105.459	-155.740
4974.244	105.692	-158.584
5046.596	105.856	-161.993
5120.000	105.931	-165.827
5194.472	105.892	-169.871
5270.027	105.718	-173.897
5346.682	105.406	-177.688
5424.451	104.977	178.929
5503.352	104.458	176.065
5583.399	103.866	173.800
5664.612	103.206	172.232
5747.006	102.489	171.433
5830.598	101.762	171.392
5915.406	101.066	172.035
6001.447	100.418	173.259
6088.740	99.813	174.976
6177.303	99.241	177.126
6267.154	98.716	179.634
6358.312	98.254	-177.575
6450.796	97.849	-174.558
6544.625	97.500	-171.370
6639.818	97.208	-167.977
6736.397	96.966	-164.365
6834.380	96.787	-160.592
6933.789	96.715	-156.759
7034.643	96.752	-153.074
7136.964	96.884	-149.600
7240.773	97.131	-146.283
7346.093	97.495	-143.392
7452.944	98.011	-141.211
7561.350	98.734	-139.810
7671.332	99.654	-139.563
7782.915	100.709	-141.700
7896.120	101.739	-147.569
8010.971	102.423	-157.620
8127.493	102.427	-170.502
8245.711	101.586	177.021
8365.647	100.040	167.736
8487.328	98.084	162.423
8610.779	96.005	160.743
8736.026	93.997	161.870
8863.095	92.142	164.905
8992.011	90.469	169.158
9122.803	88.927	174.155
9255.497	87.477	179.743
9390.121	86.166	-173.959
9526.704	85.012	-167.182
9665.273	83.966	-160.240
9805.857	82.966	-152.918
9948.487	82.033	-145.287
10093.191	81.157	-137.590
10240.000	80.360	-129.710
10388.944	79.628	-121.422
10540.055	78.946	-112.800
10693.363	78.329	-104.118
10848.902	77.750	-95.552
11006.703	77.198	-86.811
11166.799	76.687	-77.770
11329.224	76.245	-68.546
11494.012	75.877	-59.153
11661.195	75.569	-49.638
11830.812	75.305	-40.077
12002.895	75.101	-30.335
12177.480	74.954	-20.363
12354.606	74.832	-10.280
12534.309	74.753	-0.065
12716.624	74.744	9.960
12901.592	74.846	20.401
13089.250	75.123	31.474
13279.637	75.630	42.528
13472.794	76.325	53.259
13668.760	77.181	63.487
13867.577	78.308	73.827
14069.285	79.714	84.055
14273.928	81.305	93.593
14481.547	83.076	102.602
14692.186	85.130	110.242
14905.889	87.757	115.003
15122.700	90.740	114.878
15342.664	93.339	105.473
15565.829	94.742	85.743
15792.239	94.638	63.140
16021.942	93.374	47.236
16254.986	91.710	38.021
16491.422	89.983	31.028
16731.295	87.816	25.635
16974.656	85.023	24.113
17221.559	81.817	29.399
17472.053	78.581	42.088
17726.189	75.787	61.090
17984.021	73.856	82.768
18245.605	72.963	103.798
18510.994	72.857	122.977
18780.242	73.146	141.534
19053.408	73.814	160.217
19330.547	74.602	177.813
19611.715	75.046	-166.694
19896.975	74.782	-155.939
