* Measurement data measured by REW V5,19
* Source: Input device not selected, no input selected, R, volume: no control
* Format: 256k Log Swept Sine, 1 sweep at -12,0 dBFS  With no timing reference
* Dated: 06.09.2021 14:42:29
* REW Settings:
*  C-weighting compensation: On
*  Target level: 75.0 dB
* Note: ; 
* Measurement: ES6 R
* Smoothing: 1/24 octave
* Frequency Step: 1/48 octave
* Start Frequency: 20.3 Hz
*
* Freq(Hz)	SPL(dB)	Phase(degrees)
20.291	48.281	-90.987
20.586	48.765	-92.280
20.885	49.756	-94.913
21.189	50.766	-98.157
21.497	51.767	-101.843
21.810	52.750	-105.821
22.127	53.704	-109.966
22.449	54.609	-114.209
22.776	55.434	-118.514
23.107	56.136	-122.779
23.443	56.674	-126.670
23.784	57.039	-129.540
24.130	57.298	-130.657
24.481	57.618	-129.741
24.837	58.198	-127.425
25.198	59.095	-125.124
25.565	60.156	-124.247
25.937	61.159	-125.366
26.314	61.956	-128.026
26.697	62.505	-131.213
27.085	62.853	-133.992
27.479	63.104	-135.924
27.879	63.365	-137.131
28.284	63.694	-138.063
28.696	64.084	-139.131
29.113	64.497	-140.473
29.537	64.917	-142.033
29.966	65.353	-143.772
30.402	65.814	-145.740
30.844	66.281	-147.942
31.293	66.725	-150.225
31.748	67.139	-152.336
32.210	67.549	-154.130
32.678	67.979	-155.671
33.154	68.417	-157.105
33.636	68.836	-158.496
34.125	69.226	-159.798
34.621	69.599	-160.984
35.125	69.960	-162.122
35.636	70.301	-163.303
36.154	70.616	-164.569
36.680	70.917	-165.946
37.214	71.213	-167.451
37.755	71.503	-169.064
38.304	71.799	-170.752
38.861	72.116	-172.543
39.427	72.445	-174.446
40.000	72.766	-176.292
40.582	73.087	-177.875
41.172	73.429	-179.194
41.771	73.786	179.660
42.379	74.143	178.712
42.995	74.487	177.874
43.620	74.775	176.919
44.255	74.968	175.953
44.898	75.130	175.162
45.552	75.313	173.964
46.214	75.419	172.001
46.886	75.449	170.053
47.568	75.628	167.679
48.260	75.830	162.361
48.962	75.492	155.562
49.674	74.626	154.318
50.397	74.554	159.889
51.130	75.712	163.248
51.874	76.716	160.116
52.628	77.177	155.866
53.394	77.526	153.716
54.170	77.917	152.208
54.958	78.228	150.714
55.758	78.468	149.531
56.569	78.682	148.396
57.391	78.879	147.020
58.226	79.041	145.204
59.073	79.156	143.332
59.932	79.330	141.630
60.804	79.542	139.443
61.688	79.679	137.444
62.586	79.904	136.169
63.496	80.173	134.187
64.420	80.273	132.257
65.357	80.442	131.261
66.307	80.671	129.239
67.272	80.728	127.151
68.250	80.912	125.956
69.243	81.149	123.637
70.250	81.208	121.927
71.272	81.442	121.386
72.309	81.667	119.773
73.360	81.722	119.096
74.427	82.011	118.939
75.510	82.249	116.771
76.608	82.388	115.291
77.723	82.801	112.486
78.853	82.807	108.219
80.000	82.854	107.532
81.164	83.076	104.927
82.344	82.949	104.074
83.542	83.158	103.890
84.757	83.097	101.475
85.990	83.035	100.867
87.241	83.127	98.967
88.510	83.091	96.934
89.797	83.176	95.298
91.103	83.288	92.891
92.428	83.338	91.020
93.773	83.510	89.659
95.137	83.662	88.152
96.520	83.787	87.280
97.924	83.897	86.590
99.349	84.026	86.035
100.794	84.167	84.259
102.260	84.128	81.774
103.747	84.059	79.852
105.256	84.087	78.113
106.787	84.154	76.331
108.340	84.216	74.729
109.916	84.277	73.288
111.515	84.329	71.852
113.137	84.395	70.455
114.783	84.459	68.886
116.452	84.494	67.489
118.146	84.531	66.149
119.865	84.537	64.710
121.608	84.543	63.240
123.377	84.569	61.676
125.171	84.610	60.116
126.992	84.638	58.621
128.839	84.639	57.189
130.713	84.611	55.771
132.615	84.591	54.397
134.543	84.585	53.039
136.500	84.586	51.705
138.486	84.588	50.276
140.500	84.588	48.792
142.544	84.589	47.423
144.617	84.570	46.243
146.721	84.493	45.227
148.855	84.393	44.329
151.020	84.388	43.121
153.217	84.456	41.246
155.445	84.516	39.451
157.706	84.536	38.053
160.000	84.507	36.819
162.327	84.456	35.567
164.688	84.406	34.315
167.084	84.345	33.132
169.514	84.265	32.004
171.980	84.167	30.862
174.481	84.058	29.721
177.019	83.948	28.617
179.594	83.846	27.539
182.206	83.757	26.539
184.856	83.677	25.616
187.545	83.590	24.688
190.273	83.496	23.771
193.041	83.396	22.882
195.849	83.277	21.999
198.697	83.140	21.142
201.587	83.033	20.379
204.520	82.955	19.641
207.494	82.862	18.973
210.512	82.753	18.304
213.574	82.643	17.616
216.681	82.531	16.994
219.833	82.417	16.408
223.030	82.306	15.827
226.274	82.194	15.307
229.565	82.083	14.770
232.905	81.968	14.250
236.292	81.846	13.866
239.729	81.719	13.500
243.216	81.573	13.203
246.754	81.377	13.055
250.343	81.201	12.904
253.984	81.155	12.551
257.678	81.116	12.265
261.426	81.014	12.211
265.229	80.896	12.267
269.087	80.791	12.358
273.001	80.695	12.437
276.972	80.602	12.535
281.000	80.518	12.535
285.088	80.432	12.461
289.234	80.333	12.424
293.441	80.226	12.391
297.710	80.118	12.346
302.040	80.003	12.370
306.433	79.881	12.498
310.890	79.764	12.650
315.412	79.648	12.766
320.000	79.532	12.855
324.655	79.422	12.977
329.377	79.313	13.179
334.168	79.199	13.442
339.028	79.087	13.679
343.959	78.983	13.763
348.962	78.884	13.779
354.038	78.775	14.265
359.188	78.660	14.989
364.412	78.555	15.573
369.713	78.462	16.082
375.090	78.367	16.575
380.546	78.269	17.091
386.081	78.177	17.659
391.697	78.102	18.226
397.395	78.035	18.777
403.175	77.942	19.438
409.039	77.839	20.185
414.989	77.764	20.825
421.025	77.697	21.377
427.149	77.625	21.924
433.362	77.554	22.473
439.665	77.486	22.878
446.060	77.422	22.997
452.548	77.360	23.533
459.131	77.283	24.757
465.809	77.192	25.818
472.584	77.094	26.672
479.458	77.012	27.487
486.432	76.954	28.304
493.507	76.897	29.139
500.686	76.833	30.029
507.968	76.789	30.965
515.357	76.751	31.924
522.853	76.710	32.875
530.458	76.679	33.844
538.174	76.657	34.882
546.002	76.630	35.976
553.943	76.584	37.065
562.001	76.530	38.142
570.175	76.489	39.238
578.469	76.457	40.323
586.883	76.441	41.321
595.419	76.443	42.198
604.080	76.419	43.327
612.866	76.367	44.774
621.780	76.336	46.133
630.824	76.315	47.444
640.000	76.289	48.786
649.309	76.273	50.104
658.753	76.279	51.318
668.335	76.286	52.587
678.056	76.288	53.893
687.919	76.283	55.093
697.925	76.281	56.250
708.076	76.312	57.745
718.376	76.348	59.359
728.825	76.385	60.841
739.426	76.441	62.310
750.181	76.514	63.754
761.093	76.589	65.176
772.163	76.661	66.621
783.394	76.738	68.127
794.789	76.834	69.711
806.349	76.935	71.084
818.078	77.035	72.147
829.977	77.127	73.015
842.050	77.164	73.605
854.297	77.099	74.334
866.724	76.996	76.018
879.330	77.001	78.471
892.120	77.133	80.849
905.097	77.302	82.808
918.262	77.461	84.442
931.618	77.606	85.902
945.169	77.741	87.268
958.917	77.879	88.705
972.864	78.028	90.183
987.015	78.187	91.528
1001.371	78.350	92.795
1015.937	78.515	94.078
1030.714	78.681	95.377
1045.706	78.850	96.723
1060.916	79.020	97.997
1076.347	79.210	99.189
1092.003	79.419	100.285
1107.887	79.595	101.186
1124.001	79.682	102.023
1140.350	79.675	103.186
1156.937	79.664	104.875
1173.765	79.735	106.773
1190.838	79.869	108.528
1208.159	80.030	109.977
1225.732	80.197	111.197
1243.561	80.359	112.368
1261.649	80.519	113.537
1280.000	80.688	114.722
1298.618	80.857	115.922
1317.507	81.012	117.089
1336.670	81.153	118.242
1356.113	81.286	119.457
1375.838	81.418	120.653
1395.850	81.546	121.818
1416.153	81.675	123.055
1436.751	81.812	124.371
1457.649	81.946	125.670
1478.851	82.067	126.989
1500.362	82.189	128.468
1522.185	82.327	130.161
1544.326	82.484	132.022
1566.789	82.660	133.969
1589.578	82.828	136.007
1612.699	82.977	138.206
1636.156	83.130	140.425
1659.955	83.313	142.615
1684.099	83.530	144.906
1708.595	83.765	147.229
1733.447	83.994	149.456
1758.661	84.198	151.567
1784.241	84.390	153.569
1810.193	84.585	155.519
1836.523	84.784	157.409
1863.236	84.996	159.267
1890.338	85.220	161.183
1917.833	85.454	163.135
1945.729	85.699	165.107
1974.030	85.952	167.093
2002.743	86.215	169.104
2031.873	86.491	171.123
2061.428	86.783	173.173
2091.412	87.094	175.241
2121.832	87.411	177.274
2152.695	87.724	179.392
2184.007	88.062	-178.232
2215.774	88.446	-175.642
2248.003	88.857	-172.869
2280.701	89.283	-169.842
2313.874	89.734	-166.717
2347.530	90.219	-163.785
2381.676	90.717	-161.075
2416.318	91.198	-158.566
2451.464	91.680	-156.352
2487.122	92.213	-154.333
2523.298	92.808	-152.356
2560.000	93.447	-150.436
2597.236	94.121	-148.619
2635.014	94.840	-146.935
2673.341	95.618	-145.416
2712.226	96.472	-144.128
2751.676	97.409	-143.161
2791.700	98.436	-142.627
2832.306	99.563	-142.701
2873.503	100.798	-143.640
2915.299	102.131	-145.815
2957.703	103.522	-149.752
3000.724	104.871	-156.083
3044.370	106.013	-165.282
3088.652	106.749	-177.142
3133.577	106.941	169.640
3179.156	106.572	157.097
3225.398	105.754	146.911
3272.312	104.677	139.701
3319.909	103.521	135.194
3368.198	102.410	132.759
3417.190	101.410	131.792
3466.894	100.530	131.847
3517.321	99.748	132.642
3568.482	99.047	134.005
3620.387	98.425	135.816
3673.046	97.882	137.977
3726.472	97.414	140.397
3780.675	97.017	142.994
3835.666	96.687	145.715
3891.457	96.427	148.533
3948.060	96.225	151.440
4005.486	96.062	154.446
4063.747	95.924	157.561
4122.855	95.806	160.786
4182.824	95.709	164.105
4243.664	95.641	167.463
4305.390	95.607	170.775
4368.013	95.592	174.036
4431.547	95.593	177.490
4496.005	95.681	-178.756
4561.401	95.885	-175.098
4627.749	96.152	-171.620
4695.061	96.473	-168.224
4763.352	96.874	-164.946
4832.637	97.362	-161.887
4902.929	97.934	-159.133
4974.244	98.613	-156.795
5046.596	99.425	-155.057
5120.000	100.383	-154.198
5194.472	101.468	-154.642
5270.027	102.617	-156.999
5346.682	103.711	-161.991
5424.451	104.569	-170.094
5503.352	104.980	179.128
5583.399	104.802	167.397
5664.612	104.028	157.020
5747.006	102.798	149.581
5830.598	101.336	145.382
5915.406	99.852	143.914
6001.447	98.467	144.464
6088.740	97.218	146.434
6177.303	96.095	149.403
6267.154	95.089	153.096
6358.312	94.205	157.326
6450.796	93.430	161.990
6544.625	92.735	167.252
6639.818	92.137	173.657
6736.397	91.689	-178.664
6834.380	91.350	-170.653
6933.789	91.042	-163.451
7034.643	90.812	-157.192
7136.964	90.704	-151.352
7240.773	90.705	-145.607
7346.093	90.837	-139.897
7452.944	91.148	-134.415
7561.350	91.670	-129.461
7671.332	92.420	-125.360
7782.915	93.409	-122.629
7896.120	94.603	-122.164
8010.971	95.841	-125.304
8127.493	96.785	-133.296
8245.711	97.043	-145.719
8365.647	96.370	-159.240
8487.328	94.816	-169.543
8610.779	92.693	-174.616
8736.026	90.383	-175.051
8863.095	88.155	-172.292
8992.011	86.122	-167.504
9122.803	84.300	-161.401
9255.497	82.672	-154.365
9390.121	81.199	-146.378
9526.704	79.859	-136.754
9665.273	78.695	-125.013
9805.857	77.663	-112.146
9948.487	76.645	-99.204
10093.191	75.720	-85.717
10240.000	74.950	-71.974
10388.944	74.226	-59.512
10540.055	73.514	-48.505
10693.363	72.848	-37.991
10848.902	72.226	-27.408
11006.703	71.657	-16.652
11166.799	71.149	-5.729
11329.224	70.709	5.364
11494.012	70.353	16.611
11661.195	70.073	28.047
11830.812	69.852	39.703
12002.895	69.711	51.497
12177.480	69.653	63.345
12354.606	69.668	75.231
12534.309	69.762	87.141
12716.624	69.941	99.108
12901.592	70.230	111.117
13089.250	70.685	123.151
13279.637	71.387	135.445
13472.794	72.480	148.929
13668.760	74.102	164.648
13867.577	76.155	-178.309
14069.285	78.487	-162.841
14273.928	81.029	-152.077
14481.547	83.713	-147.832
14692.186	86.196	-151.234
14905.889	87.991	-162.866
15122.700	88.773	179.924
15342.664	88.611	162.086
15565.829	87.814	145.906
15792.239	86.496	131.283
16021.942	84.528	119.801
16254.986	81.874	114.061
16491.422	78.761	114.595
16731.295	75.509	120.160
16974.656	72.366	129.358
17221.559	69.501	141.099
17472.053	66.969	154.664
17726.189	64.731	169.541
17984.021	62.743	-174.613
18245.605	60.972	-157.852
18510.994	59.414	-140.198
18780.242	58.010	-121.823
19053.408	56.677	-102.264
19330.547	55.365	-80.030
19611.715	54.107	-56.429
19896.975	53.074	-39.469
