* Measurement data measured by REW V5,19
* Source: Input device not selected, no input selected, R, volume: no control
* Format: 256k Log Swept Sine, 1 sweep at -12,0 dBFS  With no timing reference
* Dated: 07.09.2021 16:20:03
* REW Settings:
*  C-weighting compensation: On
*  Target level: 75.0 dB
* Note: ; 
* Measurement: 10rub EQ R
* Smoothing: 1/24 octave
* Frequency Step: 1/48 octave
* Start Frequency: 20.3 Hz
*
* Freq(Hz)	SPL(dB)	Phase(degrees)
20.291	95.355	51.752
20.586	95.361	51.461
20.885	95.375	50.902
21.189	95.393	50.299
21.497	95.412	49.676
21.810	95.425	49.013
22.127	95.428	48.297
22.449	95.420	47.531
22.776	95.405	46.741
23.107	95.388	45.955
23.443	95.378	45.194
23.784	95.376	44.455
24.130	95.378	43.719
24.481	95.380	42.964
24.837	95.379	42.177
25.198	95.380	41.363
25.565	95.383	40.539
25.937	95.388	39.722
26.314	95.393	38.919
26.697	95.394	38.134
27.085	95.386	37.367
27.479	95.371	36.621
27.879	95.357	35.889
28.284	95.353	35.155
28.696	95.356	34.396
29.113	95.355	33.600
29.537	95.337	32.781
29.966	95.304	31.970
30.402	95.269	31.192
30.844	95.248	30.442
31.293	95.238	29.693
31.748	95.229	28.918
32.210	95.220	28.106
32.678	95.214	27.261
33.154	95.206	26.399
33.636	95.190	25.545
34.125	95.169	24.718
34.621	95.152	23.923
35.125	95.142	23.140
35.636	95.131	22.355
36.154	95.109	21.576
36.680	95.086	20.822
37.214	95.071	20.086
37.755	95.057	19.334
38.304	95.035	18.550
38.861	95.009	17.759
39.427	94.984	16.992
40.000	94.964	16.237
40.582	94.945	15.446
41.172	94.924	14.584
41.771	94.905	13.681
42.379	94.888	12.812
42.995	94.866	12.025
43.620	94.838	11.297
44.255	94.805	10.572
44.898	94.777	9.829
45.552	94.762	9.080
46.214	94.755	8.328
46.886	94.741	7.538
47.568	94.699	6.684
48.260	94.621	5.860
48.962	94.534	5.237
49.674	94.495	4.770
50.397	94.520	4.118
51.130	94.547	3.095
51.874	94.525	1.956
52.628	94.472	0.965
53.394	94.425	0.060
54.170	94.393	-0.856
54.958	94.366	-1.709
55.758	94.345	-2.434
56.569	94.333	-3.093
57.391	94.322	-3.785
58.226	94.295	-4.546
59.073	94.244	-5.323
59.932	94.183	-6.069
60.804	94.123	-6.830
61.688	94.061	-7.628
62.586	94.001	-8.401
63.496	93.956	-9.149
64.420	93.923	-9.909
65.357	93.888	-10.677
66.307	93.847	-11.405
67.272	93.812	-12.056
68.250	93.794	-12.782
69.243	93.765	-13.676
70.250	93.712	-14.578
71.272	93.649	-15.412
72.309	93.579	-16.167
73.360	93.520	-16.766
74.427	93.492	-17.428
75.510	93.448	-18.290
76.608	93.371	-19.085
77.723	93.289	-19.814
78.853	93.201	-20.582
80.000	93.094	-21.326
81.164	92.958	-21.766
82.344	92.860	-21.800
83.542	92.853	-21.943
84.757	92.882	-22.679
85.990	92.836	-23.795
87.241	92.724	-24.532
88.510	92.643	-25.040
89.797	92.561	-25.766
91.103	92.445	-26.482
92.428	92.327	-27.031
93.773	92.256	-27.558
95.137	92.221	-28.544
96.520	92.128	-29.933
97.924	91.949	-30.947
99.349	91.812	-31.267
100.794	91.763	-31.904
102.260	91.660	-32.900
103.747	91.538	-33.571
105.256	91.466	-34.249
106.787	91.387	-35.107
108.340	91.287	-35.778
109.916	91.190	-36.263
111.515	91.094	-36.740
113.137	90.986	-37.340
114.783	90.853	-38.038
116.452	90.709	-38.631
118.146	90.580	-39.143
119.865	90.447	-39.643
121.608	90.302	-40.108
123.377	90.160	-40.588
125.171	90.015	-41.137
126.992	89.867	-41.593
128.839	89.713	-41.989
130.713	89.531	-42.358
132.615	89.337	-42.655
134.543	89.161	-43.015
136.500	88.998	-43.455
138.486	88.845	-43.831
140.500	88.688	-44.077
142.544	88.523	-44.201
144.617	88.362	-44.397
146.721	88.206	-44.741
148.855	88.050	-45.099
151.020	87.890	-45.225
153.217	87.753	-45.108
155.445	87.636	-45.035
157.706	87.506	-45.044
160.000	87.354	-45.034
162.327	87.189	-44.968
164.688	87.015	-44.823
167.084	86.840	-44.649
169.514	86.657	-44.451
171.980	86.463	-44.211
174.481	86.261	-43.930
177.019	86.060	-43.599
179.594	85.876	-43.232
182.206	85.714	-42.857
184.856	85.570	-42.451
187.545	85.431	-41.989
190.273	85.294	-41.477
193.041	85.161	-40.938
195.849	85.035	-40.375
198.697	84.914	-39.791
201.587	84.797	-39.245
204.520	84.682	-38.727
207.494	84.572	-38.169
210.512	84.469	-37.586
213.574	84.374	-37.000
216.681	84.286	-36.375
219.833	84.199	-35.731
223.030	84.115	-35.155
226.274	84.037	-34.639
229.565	83.965	-34.098
232.905	83.894	-33.550
236.292	83.825	-33.019
239.729	83.760	-32.503
243.216	83.689	-31.999
246.754	83.599	-31.563
250.343	83.519	-31.103
253.984	83.483	-30.569
257.678	83.451	-30.050
261.426	83.404	-29.570
265.229	83.348	-29.114
269.087	83.285	-28.666
273.001	83.222	-28.225
276.972	83.166	-27.781
281.000	83.113	-27.337
285.088	83.061	-26.893
289.234	83.007	-26.435
293.441	82.950	-25.965
297.710	82.894	-25.497
302.040	82.839	-25.035
306.433	82.782	-24.573
310.890	82.725	-24.104
315.412	82.672	-23.626
320.000	82.621	-23.142
324.655	82.571	-22.647
329.377	82.523	-22.142
334.168	82.478	-21.627
339.028	82.429	-21.110
343.959	82.375	-20.601
348.962	82.319	-20.090
354.038	82.287	-19.543
359.188	82.264	-18.993
364.412	82.231	-18.471
369.713	82.196	-17.949
375.090	82.163	-17.421
380.546	82.133	-16.898
386.081	82.105	-16.384
391.697	82.084	-15.873
397.395	82.066	-15.353
403.175	82.039	-14.833
409.039	82.007	-14.312
414.989	81.983	-13.776
421.025	81.964	-13.245
427.149	81.948	-12.737
433.362	81.935	-12.226
439.665	81.923	-11.678
446.060	81.917	-11.099
452.548	81.922	-10.650
459.131	81.927	-10.357
465.809	81.910	-10.012
472.584	81.882	-9.605
479.458	81.864	-9.188
486.432	81.861	-8.775
493.507	81.864	-8.354
500.686	81.863	-7.928
507.968	81.861	-7.517
515.357	81.855	-7.106
522.853	81.852	-6.677
530.458	81.862	-6.241
538.174	81.872	-5.811
546.002	81.868	-5.393
553.943	81.857	-4.966
562.001	81.845	-4.520
570.175	81.828	-4.082
578.469	81.810	-3.648
586.883	81.789	-3.203
595.419	81.759	-2.764
604.080	81.740	-2.320
612.866	81.734	-1.850
621.780	81.724	-1.375
630.824	81.711	-0.912
640.000	81.691	-0.450
649.309	81.669	0.028
658.753	81.658	0.526
668.335	81.650	1.037
678.056	81.640	1.571
687.919	81.630	2.139
697.925	81.621	2.704
708.076	81.604	3.198
718.376	81.587	3.680
728.825	81.579	4.208
739.426	81.581	4.760
750.181	81.591	5.326
761.093	81.602	5.922
772.163	81.604	6.538
783.394	81.599	7.148
794.789	81.598	7.763
806.349	81.605	8.386
818.078	81.607	9.023
829.977	81.598	9.697
842.050	81.586	10.420
854.297	81.580	11.141
866.724	81.587	11.841
879.330	81.608	12.563
892.120	81.633	13.299
905.097	81.654	14.027
918.262	81.662	14.770
931.618	81.660	15.544
945.169	81.655	16.347
958.917	81.647	17.166
972.864	81.644	18.017
987.015	81.650	18.910
1001.371	81.661	19.837
1015.937	81.679	20.778
1030.714	81.703	21.765
1045.706	81.728	22.810
1060.916	81.751	23.866
1076.347	81.766	25.026
1092.003	81.785	26.495
1107.887	81.850	28.211
1124.001	81.971	29.904
1140.350	82.125	31.478
1156.937	82.300	32.975
1173.765	82.504	34.406
1190.838	82.738	35.727
1208.159	83.003	36.892
1225.732	83.295	37.881
1243.561	83.610	38.632
1261.649	83.939	39.082
1280.000	84.272	39.231
1298.618	84.599	39.115
1317.507	84.903	38.746
1336.670	85.171	38.168
1356.113	85.402	37.448
1375.838	85.596	36.644
1395.850	85.757	35.791
1416.153	85.890	34.915
1436.751	85.996	34.068
1457.649	86.080	33.298
1478.851	86.144	32.620
1500.362	86.193	32.036
1522.185	86.228	31.547
1544.326	86.255	31.166
1566.789	86.278	30.891
1589.578	86.300	30.719
1612.699	86.324	30.657
1636.156	86.356	30.691
1659.955	86.410	30.796
1684.099	86.490	30.969
1708.595	86.587	31.215
1733.447	86.687	31.505
1758.661	86.783	31.815
1784.241	86.879	32.132
1810.193	86.985	32.437
1836.523	87.102	32.718
1863.236	87.232	32.959
1890.338	87.373	33.144
1917.833	87.527	33.259
1945.729	87.691	33.290
1974.030	87.859	33.227
2002.743	88.030	33.057
2031.873	88.201	32.767
2061.428	88.369	32.365
2091.412	88.530	31.862
2121.832	88.681	31.274
2152.695	88.821	30.612
2184.007	88.947	29.886
2215.774	89.060	29.118
2248.003	89.163	28.332
2280.701	89.257	27.560
2313.874	89.343	26.826
2347.530	89.416	26.145
2381.676	89.475	25.534
2416.318	89.519	25.005
2451.464	89.554	24.547
2487.122	89.591	24.150
2523.298	89.645	23.805
2560.000	89.711	23.500
2597.236	89.779	23.214
2635.014	89.847	22.924
2673.341	89.925	22.615
2712.226	90.020	22.266
2751.676	90.133	21.855
2791.700	90.257	21.363
2832.306	90.388	20.772
2873.503	90.522	20.074
2915.299	90.657	19.252
2957.703	90.788	18.296
3000.724	90.909	17.210
3044.370	91.014	15.997
3088.652	91.093	14.659
3133.577	91.148	13.220
3179.156	91.186	11.700
3225.398	91.207	10.121
3272.312	91.210	8.499
3319.909	91.189	6.867
3368.198	91.145	5.262
3417.190	91.087	3.714
3466.894	91.009	2.254
3517.321	90.898	0.916
3568.482	90.755	-0.278
3620.387	90.591	-1.311
3673.046	90.413	-2.159
3726.472	90.230	-2.804
3780.675	90.050	-3.234
3835.666	89.892	-3.471
3891.457	89.771	-3.573
3948.060	89.683	-3.621
4005.486	89.607	-3.672
4063.747	89.520	-3.726
4122.855	89.413	-3.746
4182.824	89.281	-3.703
4243.664	89.132	-3.582
4305.390	88.978	-3.377
4368.013	88.827	-3.093
4431.547	88.689	-2.738
4496.005	88.580	-2.314
4561.401	88.514	-1.819
4627.749	88.484	-1.271
4695.061	88.487	-0.732
4763.352	88.539	-0.295
4832.637	88.640	-0.072
4902.929	88.776	-0.203
4974.244	88.936	-0.867
5046.596	89.102	-2.261
5120.000	89.216	-4.479
5194.472	89.192	-7.291
5270.027	88.960	-10.009
5346.682	88.540	-11.765
5424.451	88.052	-12.124
5503.352	87.633	-11.332
5583.399	87.352	-9.983
5664.612	87.192	-8.614
5747.006	87.108	-7.560
5830.598	87.075	-6.974
5915.406	87.065	-6.917
6001.447	87.029	-7.335
6088.740	86.913	-7.996
6177.303	86.689	-8.530
6267.154	86.378	-8.570
6358.312	86.039	-7.893
6450.796	85.719	-6.480
6544.625	85.450	-4.426
6639.818	85.250	-1.788
6736.397	85.157	1.520
6834.380	85.274	5.346
6933.789	85.640	8.568
7034.643	86.062	10.641
7136.964	86.502	12.539
7240.773	87.079	14.490
7346.093	87.862	16.071
7452.944	88.895	16.814
7561.350	90.209	16.111
7671.332	91.770	12.986
7782.915	93.406	5.980
7896.120	94.771	-6.336
8010.971	95.436	-23.663
8127.493	95.119	-42.527
8245.711	93.862	-58.330
8365.647	92.000	-68.954
8487.328	89.930	-75.046
8610.779	87.926	-78.101
8736.026	86.089	-79.301
8863.095	84.416	-79.323
8992.011	82.873	-78.510
9122.803	81.438	-77.043
9255.497	80.096	-75.003
9390.121	78.842	-72.442
9526.704	77.670	-69.404
9665.273	76.574	-65.958
9805.857	75.549	-62.162
9948.487	74.600	-58.052
10093.191	73.733	-53.664
10240.000	72.959	-49.028
10388.944	72.281	-44.147
10540.055	71.672	-39.011
10693.363	71.113	-33.678
10848.902	70.616	-28.191
11006.703	70.202	-22.557
11166.799	69.878	-16.939
11329.224	69.633	-11.425
11494.012	69.439	-5.853
11661.195	69.275	-0.016
11830.812	69.148	6.178
12002.895	69.084	12.680
12177.480	69.100	19.392
12354.606	69.188	26.305
12534.309	69.349	33.399
12716.624	69.599	40.600
12901.592	69.945	47.760
13089.250	70.408	54.819
13279.637	71.066	61.875
13472.794	72.072	68.948
13668.760	73.545	75.882
13867.577	75.472	82.272
14069.285	77.809	87.471
14273.928	80.548	90.214
14481.547	83.474	87.445
14692.186	85.872	74.310
14905.889	86.843	50.100
15122.700	85.956	25.244
15342.664	83.638	10.842
15565.829	80.926	7.020
15792.239	78.768	9.036
16021.942	77.474	13.227
16254.986	76.766	17.891
16491.422	76.418	22.863
16731.295	76.461	27.718
16974.656	77.042	31.750
17221.559	78.343	33.751
17472.053	80.295	31.059
17726.189	82.273	19.240
17984.021	83.271	-4.028
18245.605	82.601	-31.570
18510.994	80.381	-51.962
18780.242	77.340	-62.089
19053.408	74.365	-65.574
19330.547	71.963	-65.896
19611.715	70.196	-64.850
19896.975	69.158	-63.889
