* Measurement data measured by REW V5,19
* Source: Input device not selected, no input selected, R, volume: no control
* Format: 256k Log Swept Sine, 1 sweep at -12,0 dBFS  With no timing reference
* Dated: 01.09.2021 2:19:32
* REW Settings:
*  C-weighting compensation: On
*  Target level: 75.0 dB
* Note: ; 
* Measurement: IER-Z1R L
* Smoothing: 1/24 octave
* Frequency Step: 1/48 octave
* Start Frequency: 20.3 Hz
*
* Freq(Hz)	SPL(dB)	Phase(degrees)
20.291	92.454	-100.950
20.586	92.501	-101.495
20.885	92.599	-102.520
21.189	92.695	-103.562
21.497	92.779	-104.548
21.810	92.851	-105.495
22.127	92.911	-106.422
22.449	92.962	-107.335
22.776	93.008	-108.235
23.107	93.055	-109.126
23.443	93.104	-110.012
23.784	93.153	-110.894
24.130	93.196	-111.773
24.481	93.227	-112.650
24.837	93.250	-113.527
25.198	93.270	-114.405
25.565	93.292	-115.283
25.937	93.316	-116.164
26.314	93.339	-117.047
26.697	93.357	-117.934
27.085	93.365	-118.824
27.479	93.367	-119.716
27.879	93.367	-120.610
28.284	93.374	-121.505
28.696	93.388	-122.400
29.113	93.401	-123.297
29.537	93.404	-124.195
29.966	93.398	-125.094
30.402	93.394	-125.994
30.844	93.400	-126.894
31.293	93.411	-127.793
31.748	93.417	-128.689
32.210	93.419	-129.582
32.678	93.424	-130.473
33.154	93.429	-131.363
33.636	93.429	-132.252
34.125	93.425	-133.141
34.621	93.423	-134.029
35.125	93.425	-134.916
35.636	93.424	-135.799
36.154	93.416	-136.676
36.680	93.409	-137.547
37.214	93.408	-138.412
37.755	93.407	-139.272
38.304	93.402	-140.128
38.861	93.397	-140.982
39.427	93.396	-141.833
40.000	93.394	-142.682
40.582	93.386	-143.531
41.172	93.374	-144.379
41.771	93.371	-145.225
42.379	93.379	-146.069
42.995	93.383	-146.908
43.620	93.373	-147.741
44.255	93.352	-148.566
44.898	93.335	-149.381
45.552	93.334	-150.182
46.214	93.343	-150.958
46.886	93.350	-151.699
47.568	93.347	-152.411
48.260	93.340	-153.133
48.962	93.337	-153.928
49.674	93.339	-154.827
50.397	93.336	-155.784
51.130	93.316	-156.711
51.874	93.275	-157.550
52.628	93.220	-158.312
53.394	93.166	-159.041
54.170	93.130	-159.766
54.958	93.113	-160.492
55.758	93.103	-161.217
56.569	93.093	-161.930
57.391	93.078	-162.627
58.226	93.054	-163.307
59.073	93.021	-163.970
59.932	92.986	-164.618
60.804	92.956	-165.261
61.688	92.932	-165.928
62.586	92.916	-166.645
63.496	92.907	-167.404
64.420	92.899	-168.167
65.357	92.890	-168.919
66.307	92.880	-169.676
67.272	92.864	-170.450
68.250	92.840	-171.211
69.243	92.809	-171.934
70.250	92.775	-172.612
71.272	92.741	-173.242
72.309	92.709	-173.829
73.360	92.684	-174.412
74.427	92.658	-175.028
75.510	92.623	-175.666
76.608	92.573	-176.287
77.723	92.514	-176.867
78.853	92.457	-177.414
80.000	92.409	-177.950
81.164	92.361	-178.487
82.344	92.307	-179.033
83.542	92.258	-179.599
84.757	92.218	179.818
85.990	92.182	179.226
87.241	92.147	178.624
88.510	92.110	178.021
89.797	92.071	177.430
91.103	92.031	176.845
92.428	91.991	176.266
93.773	91.949	175.701
95.137	91.906	175.159
96.520	91.865	174.651
97.924	91.830	174.137
99.349	91.794	173.540
100.794	91.739	172.904
102.260	91.668	172.367
103.747	91.599	171.931
105.256	91.537	171.510
106.787	91.478	171.073
108.340	91.417	170.626
109.916	91.353	170.191
111.515	91.290	169.785
113.137	91.230	169.400
114.783	91.175	168.997
116.452	91.116	168.559
118.146	91.046	168.146
119.865	90.968	167.768
121.608	90.889	167.372
123.377	90.812	166.981
125.171	90.741	166.632
126.992	90.669	166.324
128.839	90.584	166.040
130.713	90.484	165.750
132.615	90.382	165.442
134.543	90.289	165.137
136.500	90.205	164.869
138.486	90.132	164.628
140.500	90.063	164.380
142.544	89.997	164.108
144.617	89.930	163.801
146.721	89.860	163.462
148.855	89.785	163.141
151.020	89.719	162.919
153.217	89.680	162.752
155.445	89.659	162.565
157.706	89.626	162.370
160.000	89.565	162.179
162.327	89.487	162.008
164.688	89.404	161.861
167.084	89.319	161.724
169.514	89.223	161.593
171.980	89.109	161.475
174.481	88.985	161.373
177.019	88.864	161.281
179.594	88.755	161.204
182.206	88.663	161.145
184.856	88.579	161.099
187.545	88.498	161.055
190.273	88.415	161.022
193.041	88.330	161.018
195.849	88.248	161.055
198.697	88.169	161.112
201.587	88.091	161.140
204.520	88.008	161.155
207.494	87.924	161.198
210.512	87.842	161.263
213.574	87.760	161.343
216.681	87.679	161.441
219.833	87.600	161.556
223.030	87.525	161.684
226.274	87.452	161.810
229.565	87.378	161.943
232.905	87.302	162.095
236.292	87.225	162.284
239.729	87.151	162.490
243.216	87.083	162.680
246.754	87.017	162.843
250.343	86.944	163.028
253.984	86.867	163.312
257.678	86.796	163.637
261.426	86.729	163.935
265.229	86.663	164.209
269.087	86.596	164.481
273.001	86.531	164.768
276.972	86.469	165.075
281.000	86.410	165.395
285.088	86.351	165.716
289.234	86.292	166.040
293.441	86.234	166.375
297.710	86.179	166.721
302.040	86.126	167.089
306.433	86.076	167.462
310.890	86.027	167.826
315.412	85.978	168.197
320.000	85.932	168.579
324.655	85.889	168.966
329.377	85.846	169.356
334.168	85.806	169.752
339.028	85.767	170.165
343.959	85.732	170.599
348.962	85.699	171.032
354.038	85.665	171.423
359.188	85.629	171.803
364.412	85.596	172.200
369.713	85.566	172.612
375.090	85.538	173.033
380.546	85.511	173.463
386.081	85.488	173.895
391.697	85.470	174.326
397.395	85.452	174.748
403.175	85.429	175.172
409.039	85.401	175.610
414.989	85.379	176.044
421.025	85.362	176.477
427.149	85.347	176.919
433.362	85.333	177.372
439.665	85.318	177.832
446.060	85.308	178.302
452.548	85.315	178.743
459.131	85.324	179.130
465.809	85.311	179.528
472.584	85.287	179.955
479.458	85.276	-179.603
486.432	85.285	-179.162
493.507	85.303	-178.732
500.686	85.316	-178.301
507.968	85.324	-177.867
515.357	85.330	-177.438
522.853	85.344	-177.001
530.458	85.372	-176.559
538.174	85.401	-176.129
546.002	85.416	-175.716
553.943	85.422	-175.277
562.001	85.426	-174.807
570.175	85.431	-174.339
578.469	85.438	-173.879
586.883	85.445	-173.411
595.419	85.455	-172.928
604.080	85.463	-172.469
612.866	85.467	-172.028
621.780	85.474	-171.570
630.824	85.485	-171.099
640.000	85.497	-170.614
649.309	85.510	-170.118
658.753	85.522	-169.621
668.335	85.536	-169.123
678.056	85.553	-168.621
687.919	85.573	-168.104
697.925	85.595	-167.569
708.076	85.614	-167.014
718.376	85.633	-166.431
728.825	85.663	-165.796
739.426	85.712	-165.081
750.181	85.789	-164.325
761.093	85.894	-163.714
772.163	85.990	-163.386
783.394	86.047	-163.152
794.789	86.087	-162.787
806.349	86.134	-162.293
818.078	86.182	-161.758
829.977	86.225	-161.219
842.050	86.266	-160.668
854.297	86.318	-160.108
866.724	86.388	-159.548
879.330	86.475	-158.999
892.120	86.573	-158.460
905.097	86.669	-157.930
918.262	86.755	-157.409
931.618	86.834	-156.915
945.169	86.915	-156.454
958.917	87.000	-156.007
972.864	87.094	-155.573
987.015	87.199	-155.171
1001.371	87.312	-154.811
1015.937	87.430	-154.498
1030.714	87.552	-154.221
1045.706	87.677	-153.987
1060.916	87.805	-153.811
1076.347	87.934	-153.687
1092.003	88.064	-153.607
1107.887	88.194	-153.570
1124.001	88.323	-153.580
1140.350	88.451	-153.646
1156.937	88.577	-153.751
1173.765	88.700	-153.896
1190.838	88.820	-154.091
1208.159	88.936	-154.338
1225.732	89.047	-154.628
1243.561	89.157	-154.949
1261.649	89.268	-155.296
1280.000	89.382	-155.670
1298.618	89.495	-156.077
1317.507	89.595	-156.522
1336.670	89.677	-156.988
1356.113	89.746	-157.461
1375.838	89.806	-157.933
1395.850	89.856	-158.401
1416.153	89.900	-158.848
1436.751	89.937	-159.259
1457.649	89.970	-159.618
1478.851	90.002	-159.918
1500.362	90.041	-160.172
1522.185	90.092	-160.423
1544.326	90.152	-160.737
1566.789	90.213	-161.155
1589.578	90.267	-161.670
1612.699	90.307	-162.246
1636.156	90.336	-162.833
1659.955	90.366	-163.402
1684.099	90.405	-163.935
1708.595	90.442	-164.433
1733.447	90.465	-164.895
1758.661	90.469	-165.318
1784.241	90.455	-165.707
1810.193	90.432	-166.072
1836.523	90.404	-166.409
1863.236	90.374	-166.712
1890.338	90.342	-166.978
1917.833	90.309	-167.200
1945.729	90.280	-167.393
1974.030	90.257	-167.590
2002.743	90.238	-167.827
2031.873	90.214	-168.128
2061.428	90.180	-168.482
2091.412	90.132	-168.856
2121.832	90.067	-169.215
2152.695	89.987	-169.536
2184.007	89.890	-169.796
2215.774	89.781	-169.967
2248.003	89.665	-170.026
2280.701	89.547	-169.962
2313.874	89.428	-169.754
2347.530	89.308	-169.390
2381.676	89.186	-168.881
2416.318	89.058	-168.242
2451.464	88.924	-167.452
2487.122	88.799	-166.489
2523.298	88.710	-165.378
2560.000	88.658	-164.186
2597.236	88.630	-162.995
2635.014	88.620	-161.889
2673.341	88.625	-160.942
2712.226	88.635	-160.176
2751.676	88.634	-159.527
2791.700	88.610	-158.891
2832.306	88.563	-158.186
2873.503	88.493	-157.342
2915.299	88.403	-156.262
2957.703	88.305	-154.866
3000.724	88.213	-153.115
3044.370	88.140	-150.998
3088.652	88.094	-148.517
3133.577	88.097	-145.673
3179.156	88.184	-142.505
3225.398	88.384	-139.136
3272.312	88.717	-135.777
3319.909	89.183	-132.699
3368.198	89.766	-130.167
3417.190	90.438	-128.370
3466.894	91.154	-127.418
3517.321	91.864	-127.345
3568.482	92.534	-128.139
3620.387	93.142	-129.718
3673.046	93.667	-131.897
3726.472	94.104	-134.484
3780.675	94.451	-137.358
3835.666	94.705	-140.368
3891.457	94.873	-143.298
3948.060	94.968	-145.962
4005.486	94.998	-148.251
4063.747	94.978	-150.134
4122.855	94.925	-151.653
4182.824	94.850	-152.895
4243.664	94.768	-153.970
4305.390	94.691	-155.002
4368.013	94.616	-156.091
4431.547	94.539	-157.300
4496.005	94.453	-158.642
4561.401	94.350	-160.072
4627.749	94.197	-161.464
4695.061	93.975	-162.609
4763.352	93.703	-163.269
4832.637	93.410	-163.288
4902.929	93.125	-162.614
4974.244	92.893	-161.309
5046.596	92.764	-159.572
5120.000	92.761	-157.684
5194.472	92.871	-155.931
5270.027	93.051	-154.518
5346.682	93.261	-153.546
5424.451	93.482	-153.023
5503.352	93.706	-152.882
5583.399	93.928	-153.036
5664.612	94.136	-153.431
5747.006	94.328	-154.074
5830.598	94.526	-155.037
5915.406	94.736	-156.423
6001.447	94.934	-158.309
6088.740	95.075	-160.717
6177.303	95.114	-163.567
6267.154	95.029	-166.663
6358.312	94.819	-169.720
6450.796	94.487	-172.409
6544.625	94.051	-174.433
6639.818	93.548	-175.598
6736.397	93.022	-175.841
6834.380	92.523	-175.215
6933.789	92.097	-173.849
7034.643	91.782	-171.930
7136.964	91.603	-169.699
7240.773	91.574	-167.455
7346.093	91.704	-165.535
7452.944	91.998	-164.286
7561.350	92.438	-164.097
7671.332	92.967	-165.366
7782.915	93.485	-168.411
7896.120	93.867	-173.330
8010.971	93.978	-179.787
8127.493	93.697	173.124
8245.711	92.991	166.653
8365.647	91.938	161.840
8487.328	90.675	159.136
8610.779	89.343	158.475
8736.026	88.044	159.501
8863.095	86.830	161.785
8992.011	85.728	164.980
9122.803	84.755	168.846
9255.497	83.920	173.201
9390.121	83.221	177.900
9526.704	82.652	-177.174
9665.273	82.206	-172.106
9805.857	81.872	-166.974
9948.487	81.649	-161.860
10093.191	81.550	-156.824
10240.000	81.588	-151.911
10388.944	81.760	-147.180
10540.055	82.040	-142.705
10693.363	82.417	-138.557
10848.902	82.906	-134.820
11006.703	83.529	-131.624
11166.799	84.315	-129.161
11329.224	85.281	-127.717
11494.012	86.402	-127.689
11661.195	87.609	-129.586
11830.812	88.809	-133.973
12002.895	89.873	-141.273
12177.480	90.631	-151.405
12354.606	90.945	-163.449
12534.309	90.778	-175.943
12716.624	90.200	172.325
12901.592	89.329	161.818
13089.250	88.271	152.457
13279.637	87.095	144.132
13472.794	85.864	136.979
13668.760	84.666	131.339
13867.577	83.550	127.529
14069.285	82.490	125.674
14273.928	81.439	125.656
14481.547	80.407	127.170
14692.186	79.480	129.807
14905.889	78.778	133.094
15122.700	78.448	136.456
15342.664	78.639	139.037
15565.829	79.415	139.419
15792.239	80.567	135.419
16021.942	81.521	125.016
16254.986	81.635	109.319
16491.422	80.655	93.511
16731.295	78.810	81.916
16974.656	76.578	74.670
17221.559	74.370	70.075
17472.053	72.409	66.688
17726.189	70.825	62.866
17984.021	69.550	56.605
18245.605	68.193	47.709
18510.994	66.407	39.010
18780.242	64.206	33.804
19053.408	61.875	33.461
19330.547	59.702	37.146
19611.715	57.821	42.346
19896.975	56.495	45.498
