* Measurement data measured by REW V5,19
* Source: Input device not selected, no input selected, R, volume: no control
* Format: 256k Log Swept Sine, 1 sweep at -12,0 dBFS  With no timing reference
* Dated: 01.09.2021 2:18:12
* REW Settings:
*  C-weighting compensation: On
*  Target level: 75.0 dB
* Note: ; 
* Measurement: IER-Z1R R
* Smoothing: 1/24 octave
* Frequency Step: 1/48 octave
* Start Frequency: 20.3 Hz
*
* Freq(Hz)	SPL(dB)	Phase(degrees)
20.291	92.137	-98.113
20.586	92.186	-98.655
20.885	92.288	-99.675
21.189	92.387	-100.710
21.497	92.475	-101.689
21.810	92.552	-102.628
22.127	92.618	-103.547
22.449	92.675	-104.453
22.776	92.728	-105.349
23.107	92.783	-106.241
23.443	92.841	-107.133
23.784	92.899	-108.026
24.130	92.950	-108.923
24.481	92.991	-109.822
24.837	93.021	-110.721
25.198	93.048	-111.619
25.565	93.076	-112.513
25.937	93.105	-113.403
26.314	93.133	-114.286
26.697	93.156	-115.163
27.085	93.170	-116.035
27.479	93.177	-116.902
27.879	93.184	-117.768
28.284	93.197	-118.634
28.696	93.217	-119.501
29.113	93.235	-120.367
29.537	93.242	-121.228
29.966	93.239	-122.079
30.402	93.239	-122.920
30.844	93.250	-123.753
31.293	93.268	-124.586
31.748	93.284	-125.431
32.210	93.297	-126.299
32.678	93.312	-127.194
33.154	93.325	-128.112
33.636	93.330	-129.042
34.125	93.328	-129.973
34.621	93.325	-130.897
35.125	93.327	-131.812
35.636	93.328	-132.722
36.154	93.323	-133.632
36.680	93.320	-134.546
37.214	93.323	-135.463
37.755	93.326	-136.383
38.304	93.324	-137.304
38.861	93.322	-138.225
39.427	93.323	-139.144
40.000	93.320	-140.055
40.582	93.310	-140.952
41.172	93.297	-141.831
41.771	93.294	-142.691
42.379	93.304	-143.536
42.995	93.314	-144.377
43.620	93.313	-145.224
44.255	93.302	-146.082
44.898	93.297	-146.957
45.552	93.307	-147.842
46.214	93.327	-148.733
46.886	93.342	-149.630
47.568	93.340	-150.541
48.260	93.318	-151.474
48.962	93.282	-152.398
49.674	93.246	-153.250
50.397	93.219	-153.986
51.130	93.205	-154.636
51.874	93.193	-155.278
52.628	93.174	-155.967
53.394	93.152	-156.704
54.170	93.143	-157.470
54.958	93.148	-158.258
55.758	93.158	-159.068
56.569	93.161	-159.888
57.391	93.153	-160.697
58.226	93.131	-161.479
59.073	93.094	-162.232
59.932	93.051	-162.956
60.804	93.007	-163.648
61.688	92.966	-164.310
62.586	92.936	-164.955
63.496	92.921	-165.604
64.420	92.918	-166.276
65.357	92.918	-166.980
66.307	92.914	-167.717
67.272	92.903	-168.459
68.250	92.886	-169.166
69.243	92.871	-169.822
70.250	92.866	-170.472
71.272	92.867	-171.205
72.309	92.859	-172.064
73.360	92.824	-172.967
74.427	92.763	-173.761
75.510	92.693	-174.379
76.608	92.627	-174.883
77.723	92.571	-175.370
78.853	92.525	-175.894
80.000	92.486	-176.461
81.164	92.441	-177.039
82.344	92.390	-177.598
83.542	92.348	-178.159
84.757	92.317	-178.758
85.990	92.289	-179.392
87.241	92.257	179.968
88.510	92.221	179.340
89.797	92.180	178.731
91.103	92.136	178.147
92.428	92.092	177.589
93.773	92.049	177.038
95.137	92.006	176.468
96.520	91.956	175.875
97.924	91.896	175.313
99.349	91.835	174.848
100.794	91.790	174.419
102.260	91.752	173.914
103.747	91.705	173.359
105.256	91.648	172.839
106.787	91.589	172.370
108.340	91.530	171.932
109.916	91.471	171.514
111.515	91.412	171.107
113.137	91.355	170.702
114.783	91.300	170.283
116.452	91.242	169.853
118.146	91.176	169.440
119.865	91.102	169.061
121.608	91.028	168.691
123.377	90.966	168.298
125.171	90.910	167.880
126.992	90.849	167.460
128.839	90.767	167.056
130.713	90.665	166.669
132.615	90.560	166.297
134.543	90.465	165.950
136.500	90.382	165.619
138.486	90.305	165.289
140.500	90.228	164.976
142.544	90.155	164.683
144.617	90.086	164.388
146.721	90.022	164.065
148.855	89.957	163.713
151.020	89.889	163.414
153.217	89.834	163.230
155.445	89.802	163.083
157.706	89.764	162.911
160.000	89.701	162.725
162.327	89.620	162.549
164.688	89.536	162.400
167.084	89.451	162.259
169.514	89.357	162.115
171.980	89.243	161.980
174.481	89.118	161.861
177.019	88.995	161.759
179.594	88.886	161.670
182.206	88.792	161.591
184.856	88.707	161.524
187.545	88.624	161.474
190.273	88.543	161.440
193.041	88.464	161.420
195.849	88.384	161.416
198.697	88.301	161.439
201.587	88.215	161.469
204.520	88.128	161.505
207.494	88.044	161.552
210.512	87.961	161.603
213.574	87.880	161.667
216.681	87.798	161.754
219.833	87.717	161.871
223.030	87.639	162.000
226.274	87.562	162.119
229.565	87.483	162.226
232.905	87.401	162.374
236.292	87.323	162.589
239.729	87.249	162.815
243.216	87.171	163.033
246.754	87.089	163.265
250.343	87.012	163.530
253.984	86.948	163.762
257.678	86.884	163.978
261.426	86.819	164.229
265.229	86.754	164.501
269.087	86.690	164.782
273.001	86.626	165.072
276.972	86.562	165.383
281.000	86.500	165.711
285.088	86.441	166.041
289.234	86.383	166.375
293.441	86.328	166.711
297.710	86.274	167.052
302.040	86.220	167.409
306.433	86.169	167.780
310.890	86.118	168.157
315.412	86.069	168.545
320.000	86.021	168.940
324.655	85.974	169.336
329.377	85.929	169.746
334.168	85.887	170.167
339.028	85.848	170.593
343.959	85.813	171.033
348.962	85.780	171.474
354.038	85.747	171.875
359.188	85.712	172.265
364.412	85.680	172.679
369.713	85.652	173.108
375.090	85.626	173.538
380.546	85.602	173.969
386.081	85.579	174.400
391.697	85.557	174.826
397.395	85.535	175.238
403.175	85.512	175.677
409.039	85.493	176.150
414.989	85.478	176.614
421.025	85.464	177.063
427.149	85.451	177.502
433.362	85.440	177.933
439.665	85.433	178.349
446.060	85.434	178.740
452.548	85.439	179.156
459.131	85.440	179.632
465.809	85.428	-179.893
472.584	85.409	-179.443
479.458	85.403	-179.000
486.432	85.415	-178.559
493.507	85.437	-178.128
500.686	85.453	-177.696
507.968	85.462	-177.253
515.357	85.470	-176.805
522.853	85.487	-176.352
530.458	85.518	-175.909
538.174	85.549	-175.482
546.002	85.567	-175.061
553.943	85.577	-174.620
562.001	85.585	-174.166
570.175	85.593	-173.718
578.469	85.601	-173.279
586.883	85.609	-172.850
595.419	85.621	-172.427
604.080	85.634	-171.965
612.866	85.649	-171.469
621.780	85.666	-170.993
630.824	85.683	-170.528
640.000	85.700	-170.061
649.309	85.719	-169.594
658.753	85.742	-169.134
668.335	85.765	-168.672
678.056	85.790	-168.207
687.919	85.819	-167.731
697.925	85.852	-167.252
708.076	85.883	-166.785
718.376	85.919	-166.323
728.825	85.964	-165.868
739.426	86.025	-165.429
750.181	86.094	-165.033
761.093	86.160	-164.728
772.163	86.216	-164.558
783.394	86.245	-164.575
794.789	86.207	-164.673
806.349	86.075	-164.300
818.078	85.936	-162.834
829.977	85.942	-160.719
842.050	86.101	-158.932
854.297	86.331	-157.863
866.724	86.556	-157.519
879.330	86.718	-157.551
892.120	86.824	-157.488
905.097	86.908	-157.201
918.262	86.988	-156.789
931.618	87.063	-156.351
945.169	87.140	-155.926
958.917	87.231	-155.523
972.864	87.336	-155.153
987.015	87.450	-154.827
1001.371	87.569	-154.539
1015.937	87.693	-154.284
1030.714	87.818	-154.076
1045.706	87.945	-153.917
1060.916	88.075	-153.813
1076.347	88.204	-153.765
1092.003	88.331	-153.760
1107.887	88.457	-153.792
1124.001	88.583	-153.867
1140.350	88.707	-153.993
1156.937	88.828	-154.173
1173.765	88.944	-154.398
1190.838	89.056	-154.652
1208.159	89.163	-154.939
1225.732	89.268	-155.263
1243.561	89.369	-155.618
1261.649	89.471	-155.993
1280.000	89.575	-156.389
1298.618	89.677	-156.802
1317.507	89.770	-157.214
1336.670	89.847	-157.630
1356.113	89.914	-158.059
1375.838	89.974	-158.500
1395.850	90.027	-158.940
1416.153	90.076	-159.372
1436.751	90.119	-159.804
1457.649	90.159	-160.225
1478.851	90.196	-160.629
1500.362	90.229	-161.025
1522.185	90.258	-161.409
1544.326	90.287	-161.778
1566.789	90.315	-162.131
1589.578	90.345	-162.489
1612.699	90.376	-162.866
1636.156	90.409	-163.262
1659.955	90.451	-163.684
1684.099	90.503	-164.119
1708.595	90.557	-164.546
1733.447	90.598	-164.959
1758.661	90.622	-165.362
1784.241	90.629	-165.763
1810.193	90.629	-166.159
1836.523	90.624	-166.546
1863.236	90.616	-166.934
1890.338	90.607	-167.326
1917.833	90.595	-167.725
1945.729	90.579	-168.135
1974.030	90.561	-168.571
2002.743	90.538	-169.038
2031.873	90.510	-169.540
2061.428	90.475	-170.094
2091.412	90.428	-170.717
2121.832	90.364	-171.417
2152.695	90.274	-172.192
2184.007	90.147	-173.012
2215.774	89.970	-173.805
2248.003	89.738	-174.424
2280.701	89.454	-174.649
2313.874	89.141	-174.268
2347.530	88.836	-173.191
2381.676	88.586	-171.534
2416.318	88.414	-169.579
2451.464	88.318	-167.621
2487.122	88.283	-165.850
2523.298	88.291	-164.317
2560.000	88.314	-162.982
2597.236	88.328	-161.769
2635.014	88.330	-160.604
2673.341	88.331	-159.429
2712.226	88.348	-158.219
2751.676	88.388	-157.014
2791.700	88.446	-155.912
2832.306	88.501	-154.972
2873.503	88.528	-154.133
2915.299	88.518	-153.222
2957.703	88.477	-152.052
3000.724	88.427	-150.499
3044.370	88.387	-148.517
3088.652	88.379	-146.103
3133.577	88.437	-143.302
3179.156	88.601	-140.264
3225.398	88.890	-137.226
3272.312	89.299	-134.458
3319.909	89.802	-132.181
3368.198	90.372	-130.508
3417.190	90.989	-129.479
3466.894	91.621	-129.109
3517.321	92.234	-129.389
3568.482	92.812	-130.302
3620.387	93.345	-131.821
3673.046	93.817	-133.873
3726.472	94.210	-136.336
3780.675	94.517	-139.055
3835.666	94.741	-141.858
3891.457	94.897	-144.584
3948.060	94.991	-147.098
4005.486	95.026	-149.309
4063.747	95.009	-151.172
4122.855	94.952	-152.663
4182.824	94.880	-153.824
4243.664	94.815	-154.831
4305.390	94.764	-155.889
4368.013	94.719	-157.115
4431.547	94.665	-158.576
4496.005	94.592	-160.282
4561.401	94.482	-162.160
4627.749	94.300	-164.035
4695.061	94.024	-165.646
4763.352	93.669	-166.687
4832.637	93.274	-166.947
4902.929	92.871	-166.381
4974.244	92.499	-164.977
5046.596	92.220	-162.830
5120.000	92.080	-160.195
5194.472	92.088	-157.373
5270.027	92.224	-154.650
5346.682	92.463	-152.280
5424.451	92.789	-150.457
5503.352	93.181	-149.313
5583.399	93.609	-148.916
5664.612	94.032	-149.279
5747.006	94.422	-150.389
5830.598	94.773	-152.230
5915.406	95.074	-154.766
6001.447	95.295	-157.926
6088.740	95.393	-161.565
6177.303	95.332	-165.441
6267.154	95.107	-169.233
6358.312	94.737	-172.596
6450.796	94.248	-175.224
6544.625	93.673	-176.915
6639.818	93.054	-177.581
6736.397	92.438	-177.236
6834.380	91.868	-175.973
6933.789	91.389	-173.929
7034.643	91.037	-171.290
7136.964	90.835	-168.321
7240.773	90.795	-165.336
7346.093	90.925	-162.653
7452.944	91.227	-160.589
7561.350	91.691	-159.471
7671.332	92.278	-159.664
7782.915	92.906	-161.556
7896.120	93.461	-165.435
8010.971	93.797	-171.230
8127.493	93.763	-178.260
8245.711	93.289	174.698
8365.647	92.423	168.878
8487.328	91.288	165.008
8610.779	90.029	163.219
8736.026	88.755	163.269
8863.095	87.535	164.780
8992.011	86.411	167.373
9122.803	85.412	170.751
9255.497	84.550	174.706
9390.121	83.829	179.083
9526.704	83.244	-176.246
9665.273	82.788	-171.397
9805.857	82.452	-166.468
9948.487	82.235	-161.536
10093.191	82.151	-156.676
10240.000	82.218	-151.971
10388.944	82.433	-147.507
10540.055	82.766	-143.372
10693.363	83.208	-139.678
10848.902	83.773	-136.564
11006.703	84.484	-134.229
11166.799	85.356	-132.970
11329.224	86.380	-133.192
11494.012	87.494	-135.397
11661.195	88.569	-140.089
11830.812	89.462	-147.540
12002.895	90.039	-157.458
12177.480	90.198	-168.831
12354.606	89.924	179.685
12534.309	89.291	169.066
12716.624	88.408	159.577
12901.592	87.351	151.043
13089.250	86.158	143.300
13279.637	84.864	136.447
13472.794	83.539	130.802
13668.760	82.295	126.711
13867.577	81.191	124.371
14069.285	80.186	123.812
14273.928	79.210	124.922
14481.547	78.250	127.427
14692.186	77.369	130.996
14905.889	76.681	135.297
15122.700	76.326	139.929
15342.664	76.440	144.262
15565.829	77.123	147.404
15792.239	78.352	147.986
16021.942	79.808	143.806
16254.986	80.889	132.885
16491.422	81.046	116.717
16731.295	80.128	100.726
16974.656	78.491	88.571
17221.559	76.685	79.229
17472.053	74.986	70.253
17726.189	73.307	60.519
17984.021	71.437	50.663
18245.605	69.238	42.926
18510.994	66.826	39.445
18780.242	64.640	39.503
19053.408	62.891	40.730
19330.547	61.269	43.019
19611.715	59.694	46.863
19896.975	58.564	50.481
