* Measurement data measured by REW V5,19
* Source: Input device not selected, no input selected, R, volume: no control
* Format: 256k Log Swept Sine, 1 sweep at -12,0 dBFS  With no timing reference
* Dated: 06.09.2021 14:30:08
* REW Settings:
*  C-weighting compensation: On
*  Target level: 75.0 dB
* Note: ; 
* Measurement: MH 755 R EQ
* Smoothing: 1/24 octave
* Frequency Step: 1/48 octave
* Start Frequency: 20.3 Hz
*
* Freq(Hz)	SPL(dB)	Phase(degrees)
20.291	96.531	-151.105
20.586	96.512	-151.485
20.885	96.470	-152.213
21.189	96.429	-152.994
21.497	96.388	-153.782
21.810	96.338	-154.585
22.127	96.278	-155.413
22.449	96.209	-156.264
22.776	96.136	-157.131
23.107	96.068	-158.008
23.443	96.006	-158.893
23.784	95.950	-159.786
24.130	95.893	-160.687
24.481	95.830	-161.594
24.837	95.762	-162.502
25.198	95.694	-163.401
25.565	95.631	-164.287
25.937	95.571	-165.155
26.314	95.513	-166.004
26.697	95.450	-166.834
27.085	95.380	-167.646
27.479	95.301	-168.442
27.879	95.220	-169.222
28.284	95.145	-169.992
28.696	95.075	-170.758
29.113	95.003	-171.524
29.537	94.919	-172.296
29.966	94.825	-173.071
30.402	94.731	-173.850
30.844	94.648	-174.632
31.293	94.570	-175.419
31.748	94.490	-176.210
32.210	94.407	-177.005
32.678	94.329	-177.796
33.154	94.253	-178.582
33.636	94.175	-179.359
34.125	94.095	179.875
34.621	94.016	179.127
35.125	93.942	178.404
35.636	93.866	177.708
36.154	93.783	177.035
36.680	93.701	176.377
37.214	93.623	175.728
37.755	93.543	175.084
38.304	93.456	174.446
38.861	93.368	173.817
39.427	93.283	173.187
40.000	93.198	172.550
40.582	93.106	171.904
41.172	93.011	171.258
41.771	92.925	170.618
42.379	92.851	169.992
42.995	92.776	169.381
43.620	92.691	168.770
44.255	92.595	168.146
44.898	92.501	167.532
45.552	92.424	166.940
46.214	92.362	166.335
46.886	92.295	165.715
47.568	92.218	165.126
48.260	92.143	164.475
48.962	92.061	163.612
49.674	91.943	162.731
50.397	91.809	162.224
51.130	91.715	162.055
51.874	91.658	161.817
52.628	91.584	161.405
53.394	91.489	160.995
54.170	91.400	160.620
54.958	91.322	160.236
55.758	91.244	159.866
56.569	91.166	159.480
57.391	91.084	159.029
58.226	90.988	158.542
59.073	90.883	158.064
59.932	90.782	157.595
60.804	90.688	157.125
61.688	90.599	156.658
62.586	90.513	156.229
63.496	90.436	155.869
64.420	90.366	155.546
65.357	90.293	155.224
66.307	90.212	154.911
67.272	90.128	154.608
68.250	90.044	154.284
69.243	89.961	153.921
70.250	89.877	153.553
71.272	89.795	153.217
72.309	89.718	152.908
73.360	89.643	152.625
74.427	89.567	152.348
75.510	89.480	152.070
76.608	89.382	151.809
77.723	89.277	151.541
78.853	89.173	151.250
80.000	89.075	150.947
81.164	88.975	150.678
82.344	88.873	150.440
83.542	88.776	150.233
84.757	88.689	150.040
85.990	88.601	149.850
87.241	88.511	149.674
88.510	88.423	149.504
89.797	88.343	149.300
91.103	88.266	149.068
92.428	88.190	148.848
93.773	88.111	148.677
95.137	88.027	148.558
96.520	87.933	148.454
97.924	87.824	148.372
99.349	87.716	148.383
100.794	87.644	148.333
102.260	87.582	148.047
103.747	87.506	147.755
105.256	87.429	147.566
106.787	87.351	147.457
108.340	87.270	147.383
109.916	87.185	147.317
111.515	87.098	147.243
113.137	87.013	147.157
114.783	86.928	147.079
116.452	86.841	147.021
118.146	86.749	146.973
119.865	86.648	146.923
121.608	86.546	146.874
123.377	86.453	146.837
125.171	86.370	146.817
126.992	86.285	146.801
128.839	86.183	146.787
130.713	86.065	146.776
132.615	85.947	146.768
134.543	85.842	146.767
136.500	85.748	146.761
138.486	85.661	146.755
140.500	85.577	146.783
142.544	85.492	146.835
144.617	85.404	146.834
146.721	85.313	146.711
148.855	85.221	146.548
151.020	85.143	146.620
153.217	85.109	146.875
155.445	85.087	147.081
157.706	85.045	147.201
160.000	84.978	147.276
162.327	84.901	147.365
164.688	84.820	147.473
167.084	84.731	147.579
169.514	84.632	147.677
171.980	84.517	147.788
174.481	84.391	147.920
177.019	84.265	148.058
179.594	84.152	148.192
182.206	84.057	148.335
184.856	83.971	148.494
187.545	83.885	148.657
190.273	83.799	148.820
193.041	83.715	148.975
195.849	83.637	149.134
198.697	83.562	149.310
201.587	83.472	149.513
204.520	83.374	149.767
207.494	83.280	150.018
210.512	83.190	150.254
213.574	83.101	150.496
216.681	83.015	150.739
219.833	82.927	150.998
223.030	82.838	151.279
226.274	82.749	151.571
229.565	82.660	151.876
232.905	82.568	152.200
236.292	82.476	152.545
239.729	82.384	152.920
243.216	82.300	153.322
246.754	82.235	153.806
250.343	82.163	154.316
253.984	82.051	154.755
257.678	81.932	155.212
261.426	81.831	155.764
265.229	81.738	156.425
269.087	81.658	157.176
273.001	81.597	158.000
276.972	81.562	158.845
281.000	81.553	159.637
285.088	81.561	160.266
289.234	81.569	160.676
293.441	81.560	160.921
297.710	81.528	161.111
302.040	81.481	161.344
306.433	81.427	161.651
310.890	81.366	162.022
315.412	81.304	162.461
320.000	81.242	162.956
324.655	81.180	163.495
329.377	81.119	164.059
334.168	81.064	164.632
339.028	81.014	165.208
343.959	80.971	165.763
348.962	80.935	166.309
354.038	80.899	166.981
359.188	80.866	167.717
364.412	80.837	168.386
369.713	80.812	169.020
375.090	80.793	169.662
380.546	80.778	170.305
386.081	80.769	170.933
391.697	80.767	171.575
397.395	80.769	172.231
403.175	80.764	172.860
409.039	80.754	173.446
414.989	80.752	174.022
421.025	80.756	174.614
427.149	80.765	175.205
433.362	80.775	175.777
439.665	80.791	176.352
446.060	80.825	176.943
452.548	80.864	177.473
459.131	80.885	177.895
465.809	80.890	178.316
472.584	80.888	178.756
479.458	80.899	179.206
486.432	80.930	179.666
493.507	80.977	-179.862
500.686	81.018	-179.407
507.968	81.040	-178.994
515.357	81.060	-178.608
522.853	81.091	-178.217
530.458	81.137	-177.824
538.174	81.183	-177.434
546.002	81.212	-177.058
553.943	81.228	-176.696
562.001	81.243	-176.339
570.175	81.260	-175.987
578.469	81.274	-175.637
586.883	81.289	-175.307
595.419	81.307	-174.985
604.080	81.317	-174.590
612.866	81.322	-174.142
621.780	81.330	-173.735
630.824	81.340	-173.355
640.000	81.347	-172.989
649.309	81.355	-172.621
658.753	81.370	-172.216
668.335	81.385	-171.801
678.056	81.396	-171.399
687.919	81.407	-170.982
697.925	81.418	-170.526
708.076	81.423	-170.081
718.376	81.426	-169.635
728.825	81.439	-169.162
739.426	81.462	-168.652
750.181	81.489	-168.106
761.093	81.519	-167.534
772.163	81.549	-166.934
783.394	81.581	-166.294
794.789	81.630	-165.614
806.349	81.694	-164.984
818.078	81.747	-164.480
829.977	81.780	-164.031
842.050	81.801	-163.537
854.297	81.832	-162.966
866.724	81.886	-162.339
879.330	81.960	-161.710
892.120	82.042	-161.097
905.097	82.120	-160.498
918.262	82.188	-159.900
931.618	82.247	-159.311
945.169	82.306	-158.734
958.917	82.372	-158.206
972.864	82.450	-157.718
987.015	82.540	-157.249
1001.371	82.636	-156.812
1015.937	82.739	-156.406
1030.714	82.846	-156.025
1045.706	82.954	-155.673
1060.916	83.058	-155.381
1076.347	83.160	-155.144
1092.003	83.266	-154.933
1107.887	83.371	-154.759
1124.001	83.473	-154.627
1140.350	83.574	-154.534
1156.937	83.671	-154.463
1173.765	83.765	-154.408
1190.838	83.857	-154.384
1208.159	83.947	-154.369
1225.732	84.032	-154.349
1243.561	84.115	-154.337
1261.649	84.203	-154.339
1280.000	84.297	-154.351
1298.618	84.392	-154.369
1317.507	84.478	-154.390
1336.670	84.553	-154.400
1356.113	84.620	-154.399
1375.838	84.685	-154.393
1395.850	84.749	-154.377
1416.153	84.810	-154.354
1436.751	84.868	-154.324
1457.649	84.926	-154.280
1478.851	84.986	-154.218
1500.362	85.046	-154.154
1522.185	85.108	-154.095
1544.326	85.171	-154.029
1566.789	85.234	-153.940
1589.578	85.299	-153.839
1612.699	85.366	-153.736
1636.156	85.440	-153.625
1659.955	85.530	-153.511
1684.099	85.640	-153.401
1708.595	85.757	-153.292
1733.447	85.868	-153.184
1758.661	85.966	-153.070
1784.241	86.055	-152.949
1810.193	86.143	-152.839
1836.523	86.232	-152.732
1863.236	86.323	-152.626
1890.338	86.418	-152.532
1917.833	86.516	-152.459
1945.729	86.619	-152.406
1974.030	86.724	-152.358
2002.743	86.835	-152.319
2031.873	86.950	-152.302
2061.428	87.069	-152.300
2091.412	87.192	-152.318
2121.832	87.322	-152.372
2152.695	87.458	-152.471
2184.007	87.600	-152.617
2215.774	87.749	-152.823
2248.003	87.907	-153.102
2280.701	88.074	-153.463
2313.874	88.244	-153.906
2347.530	88.410	-154.430
2381.676	88.564	-155.033
2416.318	88.701	-155.695
2451.464	88.822	-156.398
2487.122	88.937	-157.143
2523.298	89.059	-157.940
2560.000	89.179	-158.790
2597.236	89.284	-159.692
2635.014	89.374	-160.652
2673.341	89.456	-161.678
2712.226	89.534	-162.765
2751.676	89.609	-163.907
2791.700	89.674	-165.104
2832.306	89.724	-166.356
2873.503	89.757	-167.645
2915.299	89.772	-168.947
2957.703	89.765	-170.241
3000.724	89.736	-171.500
3044.370	89.680	-172.682
3088.652	89.597	-173.733
3133.577	89.500	-174.612
3179.156	89.413	-175.329
3225.398	89.353	-175.954
3272.312	89.319	-176.596
3319.909	89.300	-177.336
3368.198	89.286	-178.195
3417.190	89.272	-179.157
3466.894	89.245	179.825
3517.321	89.187	178.807
3568.482	89.097	177.836
3620.387	88.987	176.941
3673.046	88.864	176.136
3726.472	88.733	175.425
3780.675	88.599	174.801
3835.666	88.471	174.254
3891.457	88.359	173.781
3948.060	88.261	173.378
4005.486	88.159	173.039
4063.747	88.042	172.756
4122.855	87.903	172.526
4182.824	87.740	172.350
4243.664	87.554	172.218
4305.390	87.356	172.125
4368.013	87.153	172.072
4431.547	86.948	172.051
4496.005	86.756	172.066
4561.401	86.585	172.122
4627.749	86.421	172.223
4695.061	86.248	172.376
4763.352	86.074	172.601
4832.637	85.906	172.918
4902.929	85.737	173.329
4974.244	85.578	173.819
5046.596	85.442	174.360
5120.000	85.336	174.920
5194.472	85.250	175.490
5270.027	85.163	176.070
5346.682	85.064	176.663
5424.451	84.962	177.270
5503.352	84.864	177.895
5583.399	84.773	178.546
5664.612	84.678	179.231
5747.006	84.571	179.954
5830.598	84.472	-179.285
5915.406	84.401	-178.484
6001.447	84.359	-177.652
6088.740	84.331	-176.809
6177.303	84.304	-175.963
6267.154	84.283	-175.127
6358.312	84.283	-174.307
6450.796	84.305	-173.505
6544.625	84.345	-172.727
6639.818	84.403	-171.987
6736.397	84.481	-171.301
6834.380	84.584	-170.677
6933.789	84.720	-170.141
7034.643	84.897	-169.741
7136.964	85.115	-169.544
7240.773	85.370	-169.640
7346.093	85.665	-170.131
7452.944	86.003	-171.117
7561.350	86.383	-172.683
7671.332	86.786	-174.919
7782.915	87.177	-177.910
7896.120	87.517	178.293
8010.971	87.754	173.687
8127.493	87.812	168.362
8245.711	87.630	162.569
8365.647	87.193	156.745
8487.328	86.518	151.424
8610.779	85.650	147.085
8736.026	84.646	144.017
8863.095	83.563	142.296
8992.011	82.458	141.827
9122.803	81.384	142.435
9255.497	80.381	143.916
9390.121	79.467	146.060
9526.704	78.645	148.681
9665.273	77.907	151.639
9805.857	77.241	154.846
9948.487	76.641	158.270
10093.191	76.130	161.854
10240.000	75.724	165.382
10388.944	75.380	168.808
10540.055	75.059	172.321
10693.363	74.756	175.968
10848.902	74.482	179.716
11006.703	74.252	-176.487
11166.799	74.084	-172.677
11329.224	73.985	-168.836
11494.012	73.953	-164.943
11661.195	73.962	-161.008
11830.812	74.004	-157.033
12002.895	74.089	-152.995
12177.480	74.229	-148.878
12354.606	74.421	-144.716
12534.309	74.663	-140.528
12716.624	74.966	-136.338
12901.592	75.365	-132.202
13089.250	75.916	-128.197
13279.637	76.720	-124.441
13472.794	77.925	-121.133
13668.760	79.647	-118.702
13867.577	81.834	-117.973
14069.285	84.270	-120.589
14273.928	86.535	-129.351
14481.547	88.020	-146.636
14692.186	88.165	-169.624
14905.889	86.867	170.158
15122.700	84.596	158.242
15342.664	82.099	153.651
15565.829	79.987	153.352
15792.239	78.485	155.153
16021.942	77.507	157.840
16254.986	76.863	160.755
16491.422	76.435	163.463
16731.295	76.195	165.517
16974.656	76.175	166.307
17221.559	76.379	164.981
17472.053	76.677	160.473
17726.189	76.823	151.907
17984.021	76.519	139.585
18245.605	75.545	125.584
18510.994	73.889	112.704
18780.242	71.741	102.555
19053.408	69.365	95.104
19330.547	66.946	89.545
19611.715	64.554	84.982
19896.975	62.628	81.424
