* Measurement data measured by REW V5,19
* Source: Input device not selected, no input selected, R, volume: no control
* Format: 256k Log Swept Sine, 1 sweep at -12,0 dBFS  With no timing reference
* Dated: 06.09.2021 20:27:27
* REW Settings:
*  C-weighting compensation: On
*  Target level: 75.0 dB
* Note: ; 
* Measurement: Spacesihp R
* Smoothing: 1/24 octave
* Frequency Step: 1/48 octave
* Start Frequency: 20.3 Hz
*
* Freq(Hz)	SPL(dB)	Phase(degrees)
20.291	79.609	-60.912
20.586	79.681	-61.293
20.885	79.828	-62.030
21.189	79.961	-62.825
21.497	80.074	-63.585
21.810	80.172	-64.279
22.127	80.264	-64.912
22.449	80.358	-65.516
22.776	80.461	-66.142
23.107	80.574	-66.836
23.443	80.693	-67.614
23.784	80.808	-68.451
24.130	80.910	-69.300
24.481	81.001	-70.126
24.837	81.087	-70.922
25.198	81.178	-71.715
25.565	81.278	-72.540
25.937	81.382	-73.417
26.314	81.480	-74.329
26.697	81.566	-75.234
27.085	81.640	-76.091
27.479	81.711	-76.891
27.879	81.791	-77.659
28.284	81.887	-78.438
28.696	81.997	-79.263
29.113	82.105	-80.140
29.537	82.199	-81.051
29.966	82.279	-81.973
30.402	82.357	-82.889
30.844	82.441	-83.790
31.293	82.525	-84.662
31.748	82.602	-85.492
32.210	82.679	-86.283
32.678	82.764	-87.068
33.154	82.853	-87.883
33.636	82.934	-88.738
34.125	83.006	-89.603
34.621	83.077	-90.447
35.125	83.158	-91.286
35.636	83.241	-92.162
36.154	83.314	-93.086
36.680	83.383	-94.012
37.214	83.457	-94.893
37.755	83.538	-95.741
38.304	83.621	-96.600
38.861	83.705	-97.484
39.427	83.790	-98.364
40.000	83.871	-99.218
40.582	83.946	-100.062
41.172	84.015	-100.924
41.771	84.083	-101.798
42.379	84.153	-102.645
42.995	84.218	-103.447
43.620	84.277	-104.272
44.255	84.326	-105.188
44.898	84.373	-106.129
45.552	84.444	-107.021
46.214	84.547	-107.969
46.886	84.647	-109.019
47.568	84.733	-109.946
48.260	84.857	-110.814
48.962	85.007	-112.173
49.674	85.067	-113.948
50.397	85.015	-115.120
51.130	84.993	-115.298
51.874	85.073	-115.350
52.628	85.159	-115.877
53.394	85.199	-116.574
54.170	85.237	-117.219
54.958	85.294	-117.918
55.758	85.355	-118.687
56.569	85.419	-119.515
57.391	85.481	-120.422
58.226	85.532	-121.358
59.073	85.574	-122.271
59.932	85.614	-123.159
60.804	85.652	-124.014
61.688	85.689	-124.816
62.586	85.732	-125.579
63.496	85.786	-126.361
64.420	85.839	-127.182
65.357	85.885	-127.979
66.307	85.936	-128.735
67.272	85.997	-129.536
68.250	86.054	-130.389
69.243	86.106	-131.223
70.250	86.156	-132.026
71.272	86.204	-132.798
72.309	86.251	-133.553
73.360	86.296	-134.330
74.427	86.334	-135.135
75.510	86.363	-135.957
76.608	86.382	-136.770
77.723	86.397	-137.587
78.853	86.407	-138.391
80.000	86.422	-139.090
81.164	86.444	-139.733
82.344	86.461	-140.421
83.542	86.475	-141.147
84.757	86.492	-141.933
85.990	86.506	-142.756
87.241	86.522	-143.576
88.510	86.542	-144.355
89.797	86.572	-145.075
91.103	86.604	-145.776
92.428	86.629	-146.430
93.773	86.655	-147.083
95.137	86.679	-147.887
96.520	86.687	-148.775
97.924	86.705	-149.645
99.349	86.724	-150.593
100.794	86.715	-151.311
102.260	86.722	-151.726
103.747	86.739	-152.165
105.256	86.743	-152.699
106.787	86.745	-153.329
108.340	86.748	-154.092
109.916	86.745	-154.861
111.515	86.745	-155.502
113.137	86.751	-156.091
114.783	86.750	-156.675
116.452	86.745	-157.259
118.146	86.734	-157.864
119.865	86.715	-158.485
121.608	86.691	-159.113
123.377	86.673	-159.734
125.171	86.665	-160.322
126.992	86.660	-160.869
128.839	86.638	-161.435
130.713	86.576	-162.032
132.615	86.496	-162.550
134.543	86.447	-163.025
136.500	86.434	-163.613
138.486	86.435	-164.277
140.500	86.423	-164.950
142.544	86.384	-165.520
144.617	86.334	-166.010
146.721	86.282	-166.546
148.855	86.239	-167.077
151.020	86.230	-167.581
153.217	86.250	-168.145
155.445	86.268	-168.722
157.706	86.257	-169.243
160.000	86.212	-169.741
162.327	86.148	-170.247
164.688	86.074	-170.744
167.084	85.984	-171.167
169.514	85.871	-171.495
171.980	85.724	-171.690
174.481	85.547	-171.617
177.019	85.369	-171.103
179.594	85.246	-170.111
182.206	85.235	-168.891
184.856	85.347	-167.890
187.545	85.538	-167.508
190.273	85.727	-167.889
193.041	85.860	-168.734
195.849	85.937	-169.664
198.697	85.974	-170.561
201.587	85.967	-171.414
204.520	85.927	-172.141
207.494	85.881	-172.796
210.512	85.832	-173.468
213.574	85.776	-174.066
216.681	85.722	-174.451
219.833	85.677	-174.728
223.030	85.632	-175.010
226.274	85.587	-175.267
229.565	85.545	-175.497
232.905	85.508	-175.718
236.292	85.473	-175.943
239.729	85.430	-176.202
243.216	85.371	-176.472
246.754	85.302	-176.707
250.343	85.253	-176.936
253.984	85.237	-177.218
257.678	85.213	-177.494
261.426	85.170	-177.768
265.229	85.121	-178.023
269.087	85.082	-178.257
273.001	85.043	-178.397
276.972	84.993	-178.307
281.000	84.943	-178.263
285.088	84.887	-178.471
289.234	84.821	-178.657
293.441	84.760	-178.736
297.710	84.700	-178.746
302.040	84.653	-178.798
306.433	84.615	-178.901
310.890	84.571	-178.973
315.412	84.521	-179.015
320.000	84.470	-179.037
324.655	84.420	-179.039
329.377	84.370	-179.049
334.168	84.322	-179.039
339.028	84.274	-178.984
343.959	84.229	-179.016
348.962	84.186	-179.123
354.038	84.136	-179.046
359.188	84.081	-178.876
364.412	84.032	-178.726
369.713	83.981	-178.582
375.090	83.928	-178.451
380.546	83.882	-178.366
386.081	83.843	-178.292
391.697	83.807	-178.198
397.395	83.774	-178.066
403.175	83.724	-177.866
409.039	83.638	-177.579
414.989	83.564	-177.281
421.025	83.539	-177.097
427.149	83.518	-176.983
433.362	83.482	-176.843
439.665	83.436	-176.671
446.060	83.393	-176.442
452.548	83.364	-176.146
459.131	83.340	-175.871
465.809	83.291	-175.626
472.584	83.232	-175.341
479.458	83.188	-175.047
486.432	83.167	-174.758
493.507	83.162	-174.463
500.686	83.145	-174.149
507.968	83.104	-173.804
515.357	83.066	-173.437
522.853	83.045	-173.055
530.458	83.039	-172.655
538.174	83.032	-172.219
546.002	83.005	-171.764
553.943	82.973	-171.382
562.001	82.943	-171.022
570.175	82.913	-170.606
578.469	82.882	-170.148
586.883	82.851	-169.650
595.419	82.820	-169.110
604.080	82.794	-168.595
612.866	82.770	-168.109
621.780	82.747	-167.612
630.824	82.722	-167.093
640.000	82.698	-166.540
649.309	82.675	-165.957
658.753	82.658	-165.364
668.335	82.645	-164.764
678.056	82.635	-164.148
687.919	82.630	-163.515
697.925	82.630	-162.864
708.076	82.620	-162.189
718.376	82.609	-161.495
728.825	82.613	-160.783
739.426	82.628	-160.067
750.181	82.651	-159.346
761.093	82.685	-158.586
772.163	82.717	-157.799
783.394	82.745	-157.028
794.789	82.778	-156.275
806.349	82.816	-155.463
818.078	82.855	-154.597
829.977	82.890	-153.739
842.050	82.925	-152.884
854.297	82.968	-152.029
866.724	83.032	-151.177
879.330	83.114	-150.341
892.120	83.209	-149.528
905.097	83.300	-148.704
918.262	83.381	-147.866
931.618	83.456	-147.064
945.169	83.535	-146.286
958.917	83.624	-145.518
972.864	83.725	-144.775
987.015	83.840	-144.055
1001.371	83.961	-143.383
1015.937	84.085	-142.798
1030.714	84.214	-142.250
1045.706	84.348	-141.734
1060.916	84.484	-141.275
1076.347	84.620	-140.868
1092.003	84.755	-140.511
1107.887	84.892	-140.201
1124.001	85.032	-139.936
1140.350	85.169	-139.721
1156.937	85.301	-139.567
1173.765	85.428	-139.479
1190.838	85.551	-139.437
1208.159	85.668	-139.419
1225.732	85.777	-139.415
1243.561	85.879	-139.433
1261.649	85.980	-139.474
1280.000	86.078	-139.508
1298.618	86.172	-139.503
1317.507	86.259	-139.453
1336.670	86.336	-139.383
1356.113	86.404	-139.301
1375.838	86.466	-139.214
1395.850	86.521	-139.129
1416.153	86.564	-139.013
1436.751	86.598	-138.823
1457.649	86.624	-138.518
1478.851	86.650	-138.074
1500.362	86.687	-137.495
1522.185	86.740	-136.819
1544.326	86.813	-136.086
1566.789	86.906	-135.339
1589.578	87.017	-134.613
1612.699	87.141	-133.925
1636.156	87.281	-133.282
1659.955	87.442	-132.688
1684.099	87.629	-132.135
1708.595	87.823	-131.610
1733.447	88.012	-131.116
1758.661	88.191	-130.654
1784.241	88.362	-130.224
1810.193	88.533	-129.810
1836.523	88.710	-129.408
1863.236	88.891	-129.028
1890.338	89.077	-128.673
1917.833	89.270	-128.350
1945.729	89.470	-128.057
1974.030	89.677	-127.791
2002.743	89.890	-127.558
2031.873	90.109	-127.364
2061.428	90.336	-127.208
2091.412	90.572	-127.098
2121.832	90.814	-127.043
2152.695	91.063	-127.048
2184.007	91.320	-127.115
2215.774	91.586	-127.257
2248.003	91.864	-127.486
2280.701	92.157	-127.808
2313.874	92.462	-128.230
2347.530	92.772	-128.762
2381.676	93.079	-129.417
2416.318	93.379	-130.204
2451.464	93.670	-131.136
2487.122	93.963	-132.226
2523.298	94.265	-133.484
2560.000	94.566	-134.921
2597.236	94.848	-136.542
2635.014	95.108	-138.352
2673.341	95.349	-140.354
2712.226	95.575	-142.546
2751.676	95.781	-144.914
2791.700	95.959	-147.441
2832.306	96.102	-150.104
2873.503	96.205	-152.869
2915.299	96.267	-155.693
2957.703	96.284	-158.531
3000.724	96.255	-161.338
3044.370	96.179	-164.071
3088.652	96.053	-166.690
3133.577	95.884	-169.157
3179.156	95.688	-171.442
3225.398	95.473	-173.523
3272.312	95.243	-175.386
3319.909	95.001	-177.024
3368.198	94.755	-178.446
3417.190	94.518	-179.670
3466.894	94.285	179.284
3517.321	94.040	178.401
3568.482	93.779	177.685
3620.387	93.511	177.152
3673.046	93.241	176.819
3726.472	92.977	176.699
3780.675	92.725	176.798
3835.666	92.501	177.113
3891.457	92.323	177.606
3948.060	92.197	178.198
4005.486	92.107	178.778
4063.747	92.031	179.244
4122.855	91.943	179.549
4182.824	91.823	179.733
4243.664	91.665	179.880
4305.390	91.478	-179.925
4368.013	91.274	-179.625
4431.547	91.067	-179.186
4496.005	90.878	-178.601
4561.401	90.722	-177.880
4627.749	90.591	-177.056
4695.061	90.474	-176.155
4763.352	90.381	-175.198
4832.637	90.312	-174.208
4902.929	90.260	-173.209
4974.244	90.227	-172.221
5046.596	90.228	-171.265
5120.000	90.265	-170.362
5194.472	90.331	-169.524
5270.027	90.402	-168.750
5346.682	90.468	-168.038
5424.451	90.535	-167.389
5503.352	90.613	-166.798
5583.399	90.704	-166.263
5664.612	90.797	-165.791
5747.006	90.885	-165.393
5830.598	90.987	-165.082
5915.406	91.120	-164.879
6001.447	91.278	-164.803
6088.740	91.445	-164.866
6177.303	91.604	-165.074
6267.154	91.762	-165.435
6358.312	91.928	-165.952
6450.796	92.101	-166.628
6544.625	92.276	-167.467
6639.818	92.445	-168.470
6736.397	92.609	-169.634
6834.380	92.768	-170.959
6933.789	92.929	-172.442
7034.643	93.096	-174.093
7136.964	93.265	-175.938
7240.773	93.433	-178.024
7346.093	93.602	179.607
7452.944	93.779	176.913
7561.350	93.970	173.853
7671.332	94.165	170.386
7782.915	94.338	166.470
7896.120	94.464	162.082
8010.971	94.504	157.248
8127.493	94.404	152.065
8245.711	94.124	146.693
8365.647	93.670	141.351
8487.328	93.064	136.276
8610.779	92.337	131.666
8736.026	91.514	127.650
8863.095	90.613	124.279
8992.011	89.654	121.521
9122.803	88.658	119.303
9255.497	87.641	117.554
9390.121	86.609	116.219
9526.704	85.551	115.321
9665.273	84.451	114.993
9805.857	83.301	115.426
9948.487	82.125	116.776
10093.191	80.975	119.065
10240.000	79.905	122.174
10388.944	78.946	125.907
10540.055	78.073	130.067
10693.363	77.259	134.517
10848.902	76.502	139.176
11006.703	75.809	144.026
11166.799	75.186	149.065
11329.224	74.645	154.310
11494.012	74.180	159.750
11661.195	73.769	165.361
11830.812	73.406	171.160
12002.895	73.098	177.168
12177.480	72.847	-176.641
12354.606	72.647	-170.268
12534.309	72.499	-163.697
12716.624	72.402	-156.977
12901.592	72.372	-150.144
13089.250	72.451	-143.227
13279.637	72.707	-136.303
13472.794	73.237	-129.453
13668.760	74.113	-122.753
13867.577	75.277	-116.318
14069.285	76.602	-110.261
14273.928	78.023	-104.776
14481.547	79.609	-100.264
14692.186	81.503	-97.484
14905.889	83.771	-98.057
15122.700	86.141	-104.969
15342.664	87.931	-121.219
15565.829	88.449	-144.531
15792.239	87.525	-165.690
16021.942	85.644	-177.978
16254.986	83.539	177.771
16491.422	81.704	178.158
16731.295	80.270	-179.202
16974.656	79.223	-175.536
17221.559	78.552	-171.542
17472.053	78.242	-167.704
17726.189	78.287	-164.493
17984.021	78.713	-162.500
18245.605	79.578	-162.661
18510.994	80.876	-166.637
18780.242	82.310	-177.136
19053.408	83.222	163.547
19330.547	82.924	138.001
19611.715	81.207	114.528
19896.975	78.854	100.296
