* Measurement data measured by REW V5,19
* Source: Input device not selected, no input selected, R, volume: no control
* Format: 256k Log Swept Sine, 1 sweep at -12,0 dBFS  With no timing reference
* Dated: 06.09.2021 20:34:23
* REW Settings:
*  C-weighting compensation: On
*  Target level: 75.0 dB
* Note: ; 
* Measurement: Spaceship L
* Smoothing: 1/24 octave
* Frequency Step: 1/48 octave
* Start Frequency: 20.3 Hz
*
* Freq(Hz)	SPL(dB)	Phase(degrees)
20.291	87.535	-64.844
20.586	87.595	-65.208
20.885	87.721	-65.909
21.189	87.844	-66.661
21.497	87.956	-67.417
21.810	88.058	-68.177
22.127	88.151	-68.949
22.449	88.238	-69.737
22.776	88.324	-70.545
23.107	88.415	-71.382
23.443	88.513	-72.253
23.784	88.612	-73.156
24.130	88.704	-74.074
24.481	88.785	-74.984
24.837	88.859	-75.864
25.198	88.936	-76.712
25.565	89.022	-77.540
25.937	89.118	-78.374
26.314	89.218	-79.233
26.697	89.313	-80.117
27.085	89.396	-81.013
27.479	89.471	-81.902
27.879	89.543	-82.777
28.284	89.622	-83.647
28.696	89.708	-84.524
29.113	89.791	-85.408
29.537	89.860	-86.291
29.966	89.919	-87.159
30.402	89.981	-88.013
30.844	90.056	-88.868
31.293	90.138	-89.740
31.748	90.215	-90.631
32.210	90.286	-91.533
32.678	90.358	-92.432
33.154	90.431	-93.322
33.636	90.498	-94.203
34.125	90.563	-95.079
34.621	90.632	-95.956
35.125	90.706	-96.844
35.636	90.776	-97.746
36.154	90.837	-98.655
36.680	90.897	-99.553
37.214	90.963	-100.439
37.755	91.031	-101.327
38.304	91.094	-102.232
38.861	91.155	-103.147
39.427	91.216	-104.047
40.000	91.275	-104.912
40.582	91.332	-105.752
41.172	91.390	-106.598
41.771	91.455	-107.461
42.379	91.528	-108.312
42.995	91.598	-109.135
43.620	91.659	-109.974
44.255	91.708	-110.873
44.898	91.755	-111.799
45.552	91.817	-112.721
46.214	91.890	-113.663
46.886	91.958	-114.612
47.568	92.021	-115.541
48.260	92.086	-116.610
48.962	92.124	-117.916
49.674	92.111	-119.082
50.397	92.104	-119.715
51.130	92.166	-120.119
51.874	92.251	-120.789
52.628	92.293	-121.607
53.394	92.318	-122.316
54.170	92.367	-123.042
54.958	92.423	-123.875
55.758	92.473	-124.705
56.569	92.523	-125.529
57.391	92.568	-126.381
58.226	92.606	-127.231
59.073	92.637	-128.094
59.932	92.662	-128.946
60.804	92.689	-129.740
61.688	92.718	-130.534
62.586	92.742	-131.294
63.496	92.776	-131.949
64.420	92.830	-132.647
65.357	92.880	-133.483
66.307	92.915	-134.379
67.272	92.941	-135.278
68.250	92.965	-136.120
69.243	93.003	-136.883
70.250	93.055	-137.667
71.272	93.097	-138.487
72.309	93.121	-139.167
73.360	93.157	-139.712
74.427	93.200	-140.360
75.510	93.225	-141.147
76.608	93.226	-141.997
77.723	93.217	-142.812
78.853	93.225	-143.612
80.000	93.245	-144.470
81.164	93.251	-145.260
82.344	93.250	-145.877
83.542	93.260	-146.446
84.757	93.269	-147.064
85.990	93.273	-147.700
87.241	93.280	-148.378
88.510	93.291	-149.121
89.797	93.305	-149.902
91.103	93.317	-150.631
92.428	93.331	-151.284
93.773	93.339	-151.909
95.137	93.336	-152.518
96.520	93.328	-153.143
97.924	93.317	-153.839
99.349	93.303	-154.515
100.794	93.306	-155.093
102.260	93.329	-155.706
103.747	93.344	-156.347
105.256	93.347	-156.938
106.787	93.341	-157.489
108.340	93.328	-158.020
109.916	93.316	-158.529
111.515	93.312	-159.032
113.137	93.317	-159.587
114.783	93.320	-160.184
116.452	93.318	-160.763
118.146	93.308	-161.317
119.865	93.287	-161.861
121.608	93.258	-162.421
123.377	93.232	-162.985
125.171	93.217	-163.546
126.992	93.200	-164.102
128.839	93.164	-164.642
130.713	93.107	-165.164
132.615	93.049	-165.660
134.543	93.003	-166.136
136.500	92.970	-166.576
138.486	92.942	-167.000
140.500	92.914	-167.434
142.544	92.888	-167.899
144.617	92.867	-168.370
146.721	92.855	-168.786
148.855	92.855	-169.173
151.020	92.855	-169.635
153.217	92.847	-170.106
155.445	92.852	-170.521
157.706	92.859	-170.935
160.000	92.847	-171.318
162.327	92.824	-171.658
164.688	92.798	-172.008
167.084	92.765	-172.375
169.514	92.715	-172.693
171.980	92.655	-173.000
174.481	92.580	-173.358
177.019	92.503	-173.702
179.594	92.441	-174.022
182.206	92.395	-174.320
184.856	92.354	-174.607
187.545	92.314	-174.894
190.273	92.277	-175.183
193.041	92.241	-175.465
195.849	92.203	-175.730
198.697	92.159	-175.979
201.587	92.115	-176.218
204.520	92.076	-176.448
207.494	92.037	-176.668
210.512	91.991	-176.914
213.574	91.942	-177.173
216.681	91.901	-177.364
219.833	91.867	-177.503
223.030	91.828	-177.648
226.274	91.786	-177.805
229.565	91.744	-177.960
232.905	91.701	-178.119
236.292	91.655	-178.274
239.729	91.610	-178.397
243.216	91.569	-178.501
246.754	91.532	-178.632
250.343	91.494	-178.751
253.984	91.450	-178.802
257.678	91.402	-178.856
261.426	91.358	-178.933
265.229	91.315	-179.008
269.087	91.269	-179.078
273.001	91.225	-179.127
276.972	91.181	-179.157
281.000	91.136	-179.176
285.088	91.092	-179.201
289.234	91.048	-179.223
293.441	91.003	-179.222
297.710	90.958	-179.209
302.040	90.914	-179.192
306.433	90.872	-179.170
310.890	90.828	-179.134
315.412	90.783	-179.076
320.000	90.738	-178.999
324.655	90.695	-178.921
329.377	90.651	-178.858
334.168	90.607	-178.805
339.028	90.566	-178.757
343.959	90.525	-178.698
348.962	90.483	-178.597
354.038	90.438	-178.439
359.188	90.393	-178.273
364.412	90.350	-178.127
369.713	90.308	-177.986
375.090	90.268	-177.835
380.546	90.228	-177.664
386.081	90.188	-177.477
391.697	90.150	-177.290
397.395	90.109	-177.092
403.175	90.066	-176.886
409.039	90.026	-176.678
414.989	89.987	-176.458
421.025	89.949	-176.225
427.149	89.911	-175.984
433.362	89.873	-175.738
439.665	89.836	-175.487
446.060	89.802	-175.224
452.548	89.781	-174.943
459.131	89.764	-174.651
465.809	89.726	-174.354
472.584	89.678	-174.047
479.458	89.642	-173.722
486.432	89.623	-173.382
493.507	89.609	-173.059
500.686	89.595	-172.749
507.968	89.574	-172.395
515.357	89.549	-171.998
522.853	89.531	-171.595
530.458	89.528	-171.206
538.174	89.527	-170.807
546.002	89.512	-170.392
553.943	89.488	-169.962
562.001	89.462	-169.523
570.175	89.437	-169.075
578.469	89.413	-168.614
586.883	89.389	-168.148
595.419	89.367	-167.681
604.080	89.344	-167.179
612.866	89.322	-166.637
621.780	89.301	-166.090
630.824	89.282	-165.540
640.000	89.264	-164.980
649.309	89.248	-164.396
658.753	89.236	-163.783
668.335	89.225	-163.160
678.056	89.216	-162.522
687.919	89.209	-161.854
697.925	89.204	-161.166
708.076	89.203	-160.490
718.376	89.207	-159.805
728.825	89.219	-159.093
739.426	89.243	-158.364
750.181	89.276	-157.616
761.093	89.309	-156.848
772.163	89.341	-156.069
783.394	89.372	-155.283
794.789	89.410	-154.483
806.349	89.454	-153.662
818.078	89.496	-152.835
829.977	89.533	-152.002
842.050	89.572	-151.148
854.297	89.620	-150.292
866.724	89.684	-149.450
879.330	89.766	-148.606
892.120	89.859	-147.765
905.097	89.952	-146.925
918.262	90.038	-146.089
931.618	90.117	-145.267
945.169	90.195	-144.462
958.917	90.283	-143.691
972.864	90.384	-142.956
987.015	90.497	-142.251
1001.371	90.617	-141.577
1015.937	90.743	-140.941
1030.714	90.872	-140.343
1045.706	91.003	-139.779
1060.916	91.138	-139.267
1076.347	91.274	-138.809
1092.003	91.410	-138.395
1107.887	91.546	-138.017
1124.001	91.682	-137.672
1140.350	91.815	-137.361
1156.937	91.947	-137.089
1173.765	92.078	-136.856
1190.838	92.206	-136.651
1208.159	92.332	-136.472
1225.732	92.456	-136.317
1243.561	92.581	-136.179
1261.649	92.707	-136.065
1280.000	92.837	-135.968
1298.618	92.967	-135.882
1317.507	93.087	-135.812
1336.670	93.192	-135.746
1356.113	93.285	-135.670
1375.838	93.370	-135.566
1395.850	93.447	-135.420
1416.153	93.520	-135.219
1436.751	93.594	-134.947
1457.649	93.672	-134.601
1478.851	93.759	-134.203
1500.362	93.856	-133.772
1522.185	93.962	-133.327
1544.326	94.076	-132.893
1566.789	94.197	-132.481
1589.578	94.324	-132.090
1612.699	94.456	-131.713
1636.156	94.595	-131.345
1659.955	94.753	-130.988
1684.099	94.932	-130.641
1708.595	95.120	-130.295
1733.447	95.302	-129.951
1758.661	95.473	-129.610
1784.241	95.638	-129.271
1810.193	95.804	-128.939
1836.523	95.977	-128.618
1863.236	96.158	-128.312
1890.338	96.348	-128.035
1917.833	96.545	-127.799
1945.729	96.749	-127.606
1974.030	96.958	-127.452
2002.743	97.171	-127.334
2031.873	97.390	-127.247
2061.428	97.616	-127.192
2091.412	97.850	-127.175
2121.832	98.093	-127.207
2152.695	98.345	-127.303
2184.007	98.607	-127.477
2215.774	98.878	-127.737
2248.003	99.162	-128.088
2280.701	99.461	-128.538
2313.874	99.771	-129.095
2347.530	100.086	-129.771
2381.676	100.398	-130.581
2416.318	100.701	-131.538
2451.464	100.995	-132.656
2487.122	101.287	-133.945
2523.298	101.586	-135.415
2560.000	101.879	-137.078
2597.236	102.151	-138.944
2635.014	102.397	-141.012
2673.341	102.620	-143.276
2712.226	102.822	-145.724
2751.676	102.999	-148.341
2791.700	103.141	-151.100
2832.306	103.243	-153.964
2873.503	103.301	-156.891
2915.299	103.313	-159.835
2957.703	103.278	-162.747
3000.724	103.197	-165.577
3044.370	103.069	-168.281
3088.652	102.893	-170.822
3133.577	102.677	-173.168
3179.156	102.437	-175.295
3225.398	102.184	-177.190
3272.312	101.922	-178.853
3319.909	101.651	179.714
3368.198	101.379	178.507
3417.190	101.113	177.536
3466.894	100.852	176.811
3517.321	100.587	176.341
3568.482	100.323	176.124
3620.387	100.078	176.133
3673.046	99.867	176.295
3726.472	99.694	176.493
3780.675	99.553	176.618
3835.666	99.433	176.617
3891.457	99.328	176.517
3948.060	99.222	176.396
4005.486	99.101	176.329
4063.747	98.959	176.364
4122.855	98.794	176.519
4182.824	98.608	176.792
4243.664	98.408	177.168
4305.390	98.203	177.630
4368.013	98.005	178.166
4431.547	97.818	178.769
4496.005	97.658	179.424
4561.401	97.533	-179.886
4627.749	97.429	-179.169
4695.061	97.331	-178.433
4763.352	97.249	-177.674
4832.637	97.183	-176.893
4902.929	97.128	-176.095
4974.244	97.090	-175.298
5046.596	97.082	-174.527
5120.000	97.109	-173.802
5194.472	97.162	-173.131
5270.027	97.221	-172.522
5346.682	97.274	-171.980
5424.451	97.329	-171.512
5503.352	97.394	-171.120
5583.399	97.469	-170.812
5664.612	97.542	-170.592
5747.006	97.605	-170.468
5830.598	97.676	-170.448
5915.406	97.769	-170.543
6001.447	97.878	-170.762
6088.740	97.986	-171.109
6177.303	98.076	-171.577
6267.154	98.151	-172.156
6358.312	98.224	-172.831
6450.796	98.294	-173.586
6544.625	98.355	-174.392
6639.818	98.408	-175.217
6736.397	98.455	-176.043
6834.380	98.508	-176.870
6933.789	98.576	-177.723
7034.643	98.668	-178.639
7136.964	98.784	-179.675
7240.773	98.924	179.097
7346.093	99.092	177.602
7452.944	99.298	175.766
7561.350	99.549	173.489
7671.332	99.833	170.650
7782.915	100.115	167.132
7896.120	100.357	162.851
8010.971	100.504	157.798
8127.493	100.481	152.086
8245.711	100.233	145.968
8365.647	99.752	139.820
8487.328	99.059	134.064
8610.779	98.195	129.060
8736.026	97.199	125.036
8863.095	96.108	122.074
8992.011	94.961	120.141
9122.803	93.801	119.137
9255.497	92.658	118.967
9390.121	91.555	119.534
9526.704	90.501	120.745
9665.273	89.497	122.514
9805.857	88.540	124.744
9948.487	87.633	127.346
10093.191	86.790	130.231
10240.000	86.022	133.328
10388.944	85.325	136.606
10540.055	84.667	140.048
10693.363	84.022	143.643
10848.902	83.387	147.395
11006.703	82.768	151.336
11166.799	82.175	155.530
11329.224	81.620	160.067
11494.012	81.116	165.026
11661.195	80.656	170.427
11830.812	80.247	176.251
12002.895	79.917	-177.560
12177.480	79.675	-171.096
12354.606	79.510	-164.433
12534.309	79.416	-157.638
12716.624	79.395	-150.754
12901.592	79.462	-143.814
13089.250	79.655	-136.869
13279.637	80.046	-129.961
13472.794	80.742	-123.177
13668.760	81.817	-116.642
13867.577	83.215	-110.503
14069.285	84.835	-104.962
14273.928	86.646	-100.415
14481.547	88.728	-97.762
14692.186	91.089	-98.833
14905.889	93.402	-106.704
15122.700	94.991	-123.854
15342.664	95.251	-146.861
15565.829	94.134	-166.393
15792.239	92.216	-176.957
16021.942	90.289	179.958
16254.986	88.783	-178.950
16491.422	87.727	-175.902
16731.295	87.061	-172.084
16974.656	86.798	-168.209
17221.559	87.012	-164.925
17472.053	87.775	-163.239
17726.189	89.093	-165.106
17984.021	90.650	-173.975
18245.605	91.691	166.896
18510.994	91.418	140.450
18780.242	89.562	116.764
19053.408	86.536	102.036
19330.547	83.052	94.550
19611.715	79.670	90.721
19896.975	76.983	88.734
