* Measurement data measured by REW V5,19
* Source: Input device not selected, no input selected, R, volume: no control
* Format: 256k Log Swept Sine, 1 sweep at -12,0 dBFS  With no timing reference
* Dated: 06.09.2021 20:36:00
* REW Settings:
*  C-weighting compensation: On
*  Target level: 75.0 dB
* Note: ; 
* Measurement: Spaceship R
* Smoothing: 1/24 octave
* Frequency Step: 1/48 octave
* Start Frequency: 20.3 Hz
*
* Freq(Hz)	SPL(dB)	Phase(degrees)
20.291	86.126	-60.497
20.586	86.193	-60.859
20.885	86.332	-61.554
21.189	86.466	-62.299
21.497	86.588	-63.040
21.810	86.699	-63.774
22.127	86.802	-64.510
22.449	86.899	-65.258
22.776	86.994	-66.025
23.107	87.094	-66.818
23.443	87.198	-67.636
23.784	87.303	-68.467
24.130	87.401	-69.293
24.481	87.492	-70.100
24.837	87.579	-70.888
25.198	87.672	-71.672
25.565	87.773	-72.477
25.937	87.879	-73.320
26.314	87.983	-74.197
26.697	88.076	-75.082
27.085	88.157	-75.942
27.479	88.231	-76.762
27.879	88.308	-77.549
28.284	88.400	-78.337
28.696	88.502	-79.158
29.113	88.603	-80.020
29.537	88.688	-80.907
29.966	88.760	-81.790
30.402	88.831	-82.651
30.844	88.914	-83.492
31.293	89.002	-84.327
31.748	89.085	-85.162
32.210	89.165	-85.994
32.678	89.246	-86.820
33.154	89.329	-87.642
33.636	89.408	-88.469
34.125	89.482	-89.301
34.621	89.558	-90.135
35.125	89.641	-90.975
35.636	89.723	-91.832
36.154	89.797	-92.717
36.680	89.870	-93.617
37.214	89.947	-94.509
37.755	90.023	-95.376
38.304	90.098	-96.223
38.861	90.178	-97.068
39.427	90.264	-97.927
40.000	90.348	-98.807
40.582	90.420	-99.699
41.172	90.485	-100.575
41.771	90.555	-101.421
42.379	90.637	-102.246
42.995	90.717	-103.074
43.620	90.786	-103.936
44.255	90.843	-104.845
44.898	90.899	-105.771
45.552	90.973	-106.670
46.214	91.068	-107.569
46.886	91.165	-108.524
47.568	91.245	-109.512
48.260	91.312	-110.494
48.962	91.375	-111.530
49.674	91.423	-112.582
50.397	91.457	-113.420
51.130	91.506	-113.991
51.874	91.575	-114.555
52.628	91.633	-115.271
53.394	91.674	-116.060
54.170	91.722	-116.870
54.958	91.780	-117.699
55.758	91.844	-118.508
56.569	91.913	-119.315
57.391	91.980	-120.155
58.226	92.035	-120.983
59.073	92.082	-121.780
59.932	92.127	-122.569
60.804	92.173	-123.361
61.688	92.221	-124.203
62.586	92.263	-125.113
63.496	92.299	-125.998
64.420	92.340	-126.792
65.357	92.392	-127.556
66.307	92.448	-128.358
67.272	92.498	-129.168
68.250	92.546	-129.968
69.243	92.585	-130.770
70.250	92.616	-131.525
71.272	92.647	-132.248
72.309	92.681	-132.910
73.360	92.739	-133.586
74.427	92.799	-134.458
75.510	92.836	-135.352
76.608	92.867	-136.192
77.723	92.891	-137.017
78.853	92.916	-137.814
80.000	92.942	-138.585
81.164	92.968	-139.307
82.344	92.988	-140.085
83.542	92.992	-140.875
84.757	92.997	-141.548
85.990	93.017	-142.185
87.241	93.042	-142.852
88.510	93.068	-143.555
89.797	93.090	-144.281
91.103	93.112	-144.968
92.428	93.139	-145.665
93.773	93.162	-146.376
95.137	93.184	-147.034
96.520	93.218	-147.713
97.924	93.251	-148.510
99.349	93.262	-149.330
100.794	93.257	-149.987
102.260	93.265	-150.505
103.747	93.281	-151.064
105.256	93.295	-151.685
106.787	93.306	-152.352
108.340	93.318	-153.071
109.916	93.324	-153.805
111.515	93.324	-154.473
113.137	93.325	-155.068
114.783	93.328	-155.651
116.452	93.328	-156.256
118.146	93.318	-156.884
119.865	93.295	-157.509
121.608	93.269	-158.116
123.377	93.253	-158.711
125.171	93.249	-159.281
126.992	93.245	-159.841
128.839	93.221	-160.405
130.713	93.175	-160.971
132.615	93.128	-161.544
134.543	93.091	-162.108
136.500	93.069	-162.630
138.486	93.058	-163.153
140.500	93.047	-163.675
142.544	93.031	-164.189
144.617	93.006	-164.694
146.721	92.976	-165.185
148.855	92.951	-165.660
151.020	92.955	-166.134
153.217	92.984	-166.663
155.445	93.018	-167.153
157.706	93.039	-167.589
160.000	93.033	-168.042
162.327	93.009	-168.510
164.688	92.980	-168.965
167.084	92.951	-169.376
169.514	92.914	-169.802
171.980	92.855	-170.216
174.481	92.784	-170.629
177.019	92.713	-171.042
179.594	92.654	-171.441
182.206	92.610	-171.819
184.856	92.574	-172.196
187.545	92.541	-172.571
190.273	92.509	-172.930
193.041	92.477	-173.269
195.849	92.447	-173.574
198.697	92.416	-173.869
201.587	92.377	-174.187
204.520	92.331	-174.507
207.494	92.284	-174.816
210.512	92.238	-175.137
213.574	92.194	-175.444
216.681	92.157	-175.690
219.833	92.121	-175.912
223.030	92.081	-176.145
226.274	92.039	-176.382
229.565	92.000	-176.601
232.905	91.960	-176.809
236.292	91.917	-177.016
239.729	91.873	-177.213
243.216	91.825	-177.405
246.754	91.769	-177.612
250.343	91.720	-177.817
253.984	91.687	-177.988
257.678	91.651	-178.126
261.426	91.607	-178.256
265.229	91.563	-178.387
269.087	91.518	-178.509
273.001	91.472	-178.600
276.972	91.427	-178.679
281.000	91.380	-178.776
285.088	91.333	-178.878
289.234	91.285	-178.956
293.441	91.236	-179.017
297.710	91.185	-179.076
302.040	91.137	-179.131
306.433	91.093	-179.163
310.890	91.047	-179.176
315.412	91.000	-179.192
320.000	90.951	-179.203
324.655	90.903	-179.194
329.377	90.857	-179.168
334.168	90.811	-179.147
339.028	90.764	-179.138
343.959	90.719	-179.119
348.962	90.674	-179.062
354.038	90.625	-178.956
359.188	90.574	-178.849
364.412	90.527	-178.762
369.713	90.481	-178.668
375.090	90.435	-178.562
380.546	90.389	-178.441
386.081	90.345	-178.303
391.697	90.302	-178.158
397.395	90.257	-178.003
403.175	90.210	-177.831
409.039	90.163	-177.660
414.989	90.118	-177.477
421.025	90.074	-177.280
427.149	90.029	-177.075
433.362	89.986	-176.862
439.665	89.944	-176.646
446.060	89.907	-176.437
452.548	89.881	-176.193
459.131	89.855	-175.907
465.809	89.810	-175.628
472.584	89.754	-175.349
479.458	89.711	-175.055
486.432	89.687	-174.751
493.507	89.675	-174.436
500.686	89.658	-174.110
507.968	89.626	-173.781
515.357	89.591	-173.436
522.853	89.567	-173.069
530.458	89.558	-172.690
538.174	89.551	-172.298
546.002	89.529	-171.899
553.943	89.499	-171.490
562.001	89.468	-171.069
570.175	89.437	-170.638
578.469	89.407	-170.191
586.883	89.378	-169.723
595.419	89.348	-169.236
604.080	89.321	-168.749
612.866	89.296	-168.259
621.780	89.272	-167.745
630.824	89.249	-167.213
640.000	89.226	-166.662
649.309	89.204	-166.090
658.753	89.185	-165.509
668.335	89.167	-164.906
678.056	89.153	-164.280
687.919	89.141	-163.632
697.925	89.132	-162.964
708.076	89.124	-162.302
718.376	89.118	-161.627
728.825	89.122	-160.920
739.426	89.138	-160.190
750.181	89.163	-159.441
761.093	89.191	-158.664
772.163	89.215	-157.874
783.394	89.241	-157.075
794.789	89.274	-156.266
806.349	89.313	-155.440
818.078	89.350	-154.596
829.977	89.383	-153.747
842.050	89.416	-152.886
854.297	89.459	-152.023
866.724	89.523	-151.171
879.330	89.605	-150.323
892.120	89.699	-149.476
905.097	89.790	-148.633
918.262	89.872	-147.803
931.618	89.948	-146.996
945.169	90.025	-146.210
958.917	90.112	-145.440
972.864	90.213	-144.695
987.015	90.325	-143.987
1001.371	90.446	-143.317
1015.937	90.572	-142.692
1030.714	90.704	-142.108
1045.706	90.838	-141.570
1060.916	90.972	-141.093
1076.347	91.108	-140.674
1092.003	91.244	-140.303
1107.887	91.382	-139.979
1124.001	91.520	-139.705
1140.350	91.655	-139.483
1156.937	91.787	-139.313
1173.765	91.916	-139.194
1190.838	92.040	-139.122
1208.159	92.158	-139.090
1225.732	92.269	-139.089
1243.561	92.373	-139.107
1261.649	92.475	-139.133
1280.000	92.575	-139.150
1298.618	92.670	-139.135
1317.507	92.758	-139.074
1336.670	92.837	-138.982
1356.113	92.908	-138.887
1375.838	92.975	-138.804
1395.850	93.033	-138.724
1416.153	93.078	-138.610
1436.751	93.113	-138.416
1457.649	93.141	-138.101
1478.851	93.171	-137.641
1500.362	93.212	-137.048
1522.185	93.271	-136.357
1544.326	93.349	-135.624
1566.789	93.448	-134.891
1589.578	93.562	-134.187
1612.699	93.689	-133.524
1636.156	93.829	-132.906
1659.955	93.991	-132.331
1684.099	94.177	-131.797
1708.595	94.372	-131.295
1733.447	94.562	-130.816
1758.661	94.741	-130.357
1784.241	94.913	-129.919
1810.193	95.084	-129.503
1836.523	95.260	-129.107
1863.236	95.442	-128.734
1890.338	95.631	-128.393
1917.833	95.825	-128.090
1945.729	96.025	-127.823
1974.030	96.229	-127.586
2002.743	96.439	-127.375
2031.873	96.656	-127.196
2061.428	96.881	-127.054
2091.412	97.112	-126.956
2121.832	97.352	-126.909
2152.695	97.599	-126.918
2184.007	97.854	-126.990
2215.774	98.118	-127.131
2248.003	98.394	-127.350
2280.701	98.687	-127.661
2313.874	98.992	-128.076
2347.530	99.302	-128.604
2381.676	99.610	-129.252
2416.318	99.911	-130.032
2451.464	100.202	-130.959
2487.122	100.495	-132.044
2523.298	100.797	-133.301
2560.000	101.097	-134.739
2597.236	101.377	-136.364
2635.014	101.635	-138.180
2673.341	101.875	-140.187
2712.226	102.099	-142.383
2751.676	102.303	-144.759
2791.700	102.478	-147.293
2832.306	102.618	-149.957
2873.503	102.717	-152.714
2915.299	102.773	-155.525
2957.703	102.784	-158.345
3000.724	102.750	-161.124
3044.370	102.667	-163.814
3088.652	102.535	-166.367
3133.577	102.362	-168.744
3179.156	102.166	-170.925
3225.398	101.956	-172.911
3272.312	101.736	-174.712
3319.909	101.503	-176.331
3368.198	101.263	-177.756
3417.190	101.022	-178.963
3466.894	100.780	-179.931
3517.321	100.528	179.344
3568.482	100.271	178.853
3620.387	100.024	178.573
3673.046	99.796	178.467
3726.472	99.591	178.476
3780.675	99.412	178.537
3835.666	99.261	178.603
3891.457	99.142	178.641
3948.060	99.040	178.640
4005.486	98.933	178.624
4063.747	98.807	178.633
4122.855	98.654	178.703
4182.824	98.472	178.854
4243.664	98.267	179.097
4305.390	98.051	179.440
4368.013	97.833	179.895
4431.547	97.622	-179.536
4496.005	97.435	-178.864
4561.401	97.285	-178.109
4627.749	97.159	-177.287
4695.061	97.045	-176.410
4763.352	96.953	-175.489
4832.637	96.885	-174.545
4902.929	96.833	-173.609
4974.244	96.799	-172.710
5046.596	96.793	-171.862
5120.000	96.818	-171.065
5194.472	96.865	-170.313
5270.027	96.914	-169.599
5346.682	96.957	-168.913
5424.451	97.003	-168.258
5503.352	97.064	-167.649
5583.399	97.140	-167.110
5664.612	97.217	-166.654
5747.006	97.285	-166.281
5830.598	97.362	-165.986
5915.406	97.467	-165.770
6001.447	97.597	-165.647
6088.740	97.738	-165.641
6177.303	97.872	-165.778
6267.154	98.002	-166.073
6358.312	98.137	-166.524
6450.796	98.274	-167.117
6544.625	98.407	-167.833
6639.818	98.533	-168.660
6736.397	98.652	-169.591
6834.380	98.768	-170.624
6933.789	98.886	-171.757
7034.643	99.012	-172.999
7136.964	99.143	-174.374
7240.773	99.278	-175.921
7346.093	99.420	-177.671
7452.944	99.580	-179.648
7561.350	99.770	178.113
7671.332	99.986	175.557
7782.915	100.210	172.618
7896.120	100.421	169.220
8010.971	100.585	165.307
8127.493	100.643	160.875
8245.711	100.551	155.988
8365.647	100.299	150.788
8487.328	99.895	145.489
8610.779	99.348	140.345
8736.026	98.670	135.588
8863.095	97.873	131.388
8992.011	96.985	127.817
9122.803	96.039	124.857
9255.497	95.055	122.443
9390.121	94.043	120.519
9526.704	92.995	119.095
9665.273	91.900	118.274
9805.857	90.749	118.231
9948.487	89.564	119.144
10093.191	88.387	121.078
10240.000	87.280	123.929
10388.944	86.284	127.491
10540.055	85.384	131.553
10693.363	84.558	135.963
10848.902	83.799	140.629
11006.703	83.112	145.504
11166.799	82.500	150.553
11329.224	81.971	155.767
11494.012	81.524	161.154
11661.195	81.131	166.720
11830.812	80.781	172.473
12002.895	80.490	178.429
12177.480	80.260	-175.408
12354.606	80.083	-169.060
12534.309	79.957	-162.549
12716.624	79.888	-155.905
12901.592	79.894	-149.165
13089.250	80.015	-142.368
13279.637	80.318	-135.565
13472.794	80.903	-128.840
13668.760	81.839	-122.307
13867.577	83.066	-116.091
14069.285	84.465	-110.330
14273.928	85.977	-105.250
14481.547	87.672	-101.377
14692.186	89.663	-99.735
14905.889	91.922	-102.261
15122.700	94.058	-111.909
15342.664	95.401	-130.184
15565.829	95.449	-152.466
15792.239	94.267	-170.112
16021.942	92.449	-179.255
16254.986	90.642	178.193
16491.422	89.176	179.253
16731.295	88.104	-178.001
16974.656	87.432	-174.617
17221.559	87.194	-171.264
17472.053	87.424	-168.615
17726.189	88.173	-167.716
17984.021	89.441	-170.475
18245.605	90.931	179.906
18510.994	91.937	160.531
18780.242	91.704	134.094
19053.408	89.963	109.744
19330.547	87.051	93.565
19611.715	83.620	84.635
19896.975	80.635	80.374
