* Measurement data measured by REW V5,19
* Source: Input device not selected, no input selected, R, volume: no control
* Format: 256k Log Swept Sine, 1 sweep at -12,0 dBFS  With no timing reference
* Dated: 20.09.2021 16:43:29
* REW Settings:
*  C-weighting compensation: On
*  Target level: 75.0 dB
* Note: ; 
* Measurement: Tanya R
* Smoothing: 1/24 octave
* Frequency Step: 1/48 octave
* Start Frequency: 20.3 Hz
*
* Freq(Hz)	SPL(dB)	Phase(degrees)
20.291	91.601	-77.835
20.586	91.649	-78.240
20.885	91.751	-79.014
21.189	91.852	-79.842
21.497	91.943	-80.672
21.810	92.024	-81.514
22.127	92.095	-82.376
22.449	92.159	-83.263
22.776	92.220	-84.172
23.107	92.286	-85.103
23.443	92.358	-86.053
23.784	92.435	-87.019
24.130	92.510	-87.994
24.481	92.579	-88.976
24.837	92.646	-89.968
25.198	92.714	-90.971
25.565	92.786	-91.986
25.937	92.861	-93.006
26.314	92.934	-94.019
26.697	93.000	-95.013
27.085	93.056	-95.978
27.479	93.104	-96.911
27.879	93.153	-97.815
28.284	93.211	-98.698
28.696	93.278	-99.576
29.113	93.347	-100.477
29.537	93.405	-101.421
29.966	93.450	-102.411
30.402	93.488	-103.425
30.844	93.530	-104.431
31.293	93.574	-105.410
31.748	93.616	-106.372
32.210	93.657	-107.342
32.678	93.703	-108.330
33.154	93.749	-109.327
33.636	93.791	-110.319
34.125	93.832	-111.308
34.621	93.876	-112.305
35.125	93.924	-113.307
35.636	93.967	-114.296
36.154	94.003	-115.260
36.680	94.041	-116.213
37.214	94.087	-117.174
37.755	94.129	-118.146
38.304	94.164	-119.125
38.861	94.197	-120.103
39.427	94.231	-121.074
40.000	94.264	-122.030
40.582	94.295	-122.981
41.172	94.326	-123.958
41.771	94.366	-124.972
42.379	94.410	-125.986
42.995	94.447	-126.958
43.620	94.473	-127.891
44.255	94.491	-128.811
44.898	94.514	-129.734
45.552	94.551	-130.671
46.214	94.595	-131.613
46.886	94.632	-132.545
47.568	94.655	-133.513
48.260	94.654	-134.573
48.962	94.627	-135.589
49.674	94.609	-136.376
50.397	94.643	-137.062
51.130	94.707	-137.941
51.874	94.746	-139.003
52.628	94.749	-140.027
53.394	94.746	-140.957
54.170	94.759	-141.857
54.958	94.787	-142.743
55.758	94.818	-143.624
56.569	94.842	-144.491
57.391	94.860	-145.333
58.226	94.872	-146.198
59.073	94.871	-147.106
59.932	94.864	-148.022
60.804	94.858	-148.954
61.688	94.850	-149.890
62.586	94.848	-150.800
63.496	94.858	-151.718
64.420	94.866	-152.643
65.357	94.866	-153.500
66.307	94.866	-154.270
67.272	94.871	-155.026
68.250	94.872	-155.761
69.243	94.878	-156.446
70.250	94.893	-157.216
71.272	94.894	-158.065
72.309	94.889	-158.897
73.360	94.883	-159.769
74.427	94.872	-160.612
75.510	94.871	-161.415
76.608	94.870	-162.251
77.723	94.855	-162.994
78.853	94.849	-163.577
80.000	94.864	-164.160
81.164	94.861	-164.848
82.344	94.836	-165.581
83.542	94.800	-166.449
84.757	94.747	-167.328
85.990	94.699	-168.075
87.241	94.665	-168.755
88.510	94.626	-169.309
89.797	94.600	-169.656
91.103	94.604	-170.056
92.428	94.613	-170.761
93.773	94.596	-171.675
95.137	94.574	-172.518
96.520	94.582	-173.333
97.924	94.585	-174.210
99.349	94.569	-174.885
100.794	94.550	-175.527
102.260	94.500	-176.210
103.747	94.434	-176.855
105.256	94.378	-177.483
106.787	94.344	-178.172
108.340	94.314	-178.923
109.916	94.275	-179.620
111.515	94.236	-180.236
113.137	94.198	-180.880
114.783	94.152	-181.556
116.452	94.099	-182.199
118.146	94.038	-182.782
119.865	93.973	-183.295
121.608	93.918	-183.807
123.377	93.878	-184.374
125.171	93.842	-184.951
126.992	93.797	-185.470
128.839	93.732	-185.972
130.713	93.644	-186.490
132.615	93.559	-187.026
134.543	93.492	-187.607
136.500	93.432	-188.198
138.486	93.373	-188.739
140.500	93.318	-189.242
142.544	93.265	-189.746
144.617	93.209	-190.232
146.721	93.146	-190.683
148.855	93.083	-191.091
151.020	93.040	-191.524
153.217	93.018	-192.036
155.445	93.007	-192.529
157.706	92.986	-192.973
160.000	92.940	-193.399
162.327	92.879	-193.822
164.688	92.814	-194.237
167.084	92.745	-194.636
169.514	92.665	-195.024
171.980	92.565	-195.402
174.481	92.455	-195.773
177.019	92.346	-196.140
179.594	92.251	-196.498
182.206	92.171	-196.842
184.856	92.098	-197.170
187.545	92.025	-197.493
190.273	91.953	-197.815
193.041	91.881	-198.122
195.849	91.807	-198.422
198.697	91.731	-198.719
201.587	91.654	-198.997
204.520	91.580	-199.258
207.494	91.506	-199.513
210.512	91.430	-199.767
213.574	91.353	-200.012
216.681	91.275	-200.241
219.833	91.196	-200.455
223.030	91.118	-200.663
226.274	91.038	-200.870
229.565	90.957	-201.067
232.905	90.875	-201.251
236.292	90.792	-201.427
239.729	90.709	-201.587
243.216	90.625	-201.737
246.754	90.536	-201.916
250.343	90.447	-202.078
253.984	90.368	-202.169
257.678	90.288	-202.241
261.426	90.202	-202.322
265.229	90.112	-202.403
269.087	90.021	-202.473
273.001	89.930	-202.515
276.972	89.837	-202.528
281.000	89.742	-202.507
285.088	89.647	-202.433
289.234	89.552	-202.303
293.441	89.463	-202.110
297.710	89.386	-201.846
302.040	89.333	-201.566
306.433	89.302	-201.401
310.890	89.277	-201.434
315.412	89.235	-201.605
320.000	89.172	-201.813
324.655	89.092	-201.978
329.377	89.005	-202.077
334.168	88.915	-202.123
339.028	88.824	-202.126
343.959	88.736	-202.080
348.962	88.650	-201.995
354.038	88.560	-201.920
359.188	88.468	-201.838
364.412	88.379	-201.729
369.713	88.293	-201.598
375.090	88.206	-201.454
380.546	88.120	-201.300
386.081	88.034	-201.135
391.697	87.951	-200.941
397.395	87.866	-200.718
403.175	87.779	-200.507
409.039	87.697	-200.306
414.989	87.614	-200.085
421.025	87.531	-199.845
427.149	87.448	-199.591
433.362	87.365	-199.327
439.665	87.284	-199.034
446.060	87.207	-198.696
452.548	87.141	-198.372
459.131	87.078	-198.098
465.809	86.995	-197.806
472.584	86.901	-197.468
479.458	86.819	-197.105
486.432	86.755	-196.735
493.507	86.704	-196.343
500.686	86.649	-195.938
507.968	86.582	-195.537
515.357	86.511	-195.124
522.853	86.450	-194.691
530.458	86.403	-194.240
538.174	86.358	-193.771
546.002	86.300	-193.298
553.943	86.233	-192.805
562.001	86.163	-192.293
570.175	86.093	-191.782
578.469	86.026	-191.265
586.883	85.961	-190.742
595.419	85.896	-190.211
604.080	85.831	-189.624
612.866	85.768	-188.986
621.780	85.707	-188.350
630.824	85.648	-187.705
640.000	85.588	-187.046
649.309	85.530	-186.388
658.753	85.477	-185.723
668.335	85.425	-185.030
678.056	85.375	-184.317
687.919	85.328	-183.602
697.925	85.285	-182.871
708.076	85.243	-182.096
718.376	85.203	-181.286
728.825	85.173	-180.470
739.426	85.157	-179.648
750.181	85.149	-178.824
761.093	85.140	-177.987
772.163	85.127	-177.116
783.394	85.117	-176.222
794.789	85.112	-175.329
806.349	85.113	-174.428
818.078	85.114	-173.502
829.977	85.110	-172.556
842.050	85.110	-171.597
854.297	85.118	-170.642
866.724	85.137	-169.694
879.330	85.175	-168.747
892.120	85.227	-167.803
905.097	85.277	-166.876
918.262	85.319	-165.976
931.618	85.351	-165.092
945.169	85.383	-164.212
958.917	85.427	-163.350
972.864	85.483	-162.518
987.015	85.549	-161.718
1001.371	85.623	-160.950
1015.937	85.700	-160.217
1030.714	85.778	-159.517
1045.706	85.856	-158.857
1060.916	85.933	-158.243
1076.347	86.011	-157.658
1092.003	86.090	-157.090
1107.887	86.166	-156.541
1124.001	86.240	-156.006
1140.350	86.313	-155.488
1156.937	86.388	-154.990
1173.765	86.461	-154.512
1190.838	86.532	-154.040
1208.159	86.601	-153.584
1225.732	86.670	-153.145
1243.561	86.739	-152.707
1261.649	86.812	-152.268
1280.000	86.892	-151.826
1298.618	86.973	-151.375
1317.507	87.048	-150.919
1336.670	87.114	-150.465
1356.113	87.173	-150.004
1375.838	87.231	-149.522
1395.850	87.290	-149.021
1416.153	87.347	-148.512
1436.751	87.405	-147.993
1457.649	87.463	-147.454
1478.851	87.520	-146.890
1500.362	87.580	-146.301
1522.185	87.642	-145.693
1544.326	87.709	-145.070
1566.789	87.780	-144.425
1589.578	87.856	-143.775
1612.699	87.936	-143.133
1636.156	88.024	-142.493
1659.955	88.130	-141.835
1684.099	88.255	-141.160
1708.595	88.387	-140.481
1733.447	88.514	-139.792
1758.661	88.631	-139.092
1784.241	88.740	-138.383
1810.193	88.850	-137.663
1836.523	88.965	-136.932
1863.236	89.085	-136.199
1890.338	89.212	-135.465
1917.833	89.346	-134.732
1945.729	89.487	-134.006
1974.030	89.636	-133.283
2002.743	89.794	-132.568
2031.873	89.958	-131.870
2061.428	90.128	-131.191
2091.412	90.305	-130.532
2121.832	90.490	-129.888
2152.695	90.682	-129.259
2184.007	90.882	-128.651
2215.774	91.092	-128.067
2248.003	91.315	-127.511
2280.701	91.554	-126.990
2313.874	91.807	-126.506
2347.530	92.069	-126.066
2381.676	92.335	-125.675
2416.318	92.598	-125.341
2451.464	92.862	-125.077
2487.122	93.137	-124.884
2523.298	93.433	-124.771
2560.000	93.738	-124.747
2597.236	94.038	-124.804
2635.014	94.335	-124.917
2673.341	94.642	-125.058
2712.226	94.977	-125.220
2751.676	95.355	-125.460
2791.700	95.777	-125.916
2832.306	96.231	-126.734
2873.503	96.701	-128.004
2915.299	97.171	-129.812
2957.703	97.610	-132.223
3000.724	97.980	-135.168
3044.370	98.258	-138.435
3088.652	98.442	-141.807
3133.577	98.549	-145.151
3179.156	98.599	-148.407
3225.398	98.605	-151.541
3272.312	98.571	-154.524
3319.909	98.499	-157.334
3368.198	98.399	-159.946
3417.190	98.282	-162.342
3466.894	98.149	-164.525
3517.321	97.992	-166.512
3568.482	97.810	-168.325
3620.387	97.608	-169.983
3673.046	97.388	-171.486
3726.472	97.147	-172.811
3780.675	96.884	-173.895
3835.666	96.611	-174.633
3891.457	96.356	-174.933
3948.060	96.146	-174.810
4005.486	95.989	-174.430
4063.747	95.875	-174.006
4122.855	95.778	-173.660
4182.824	95.679	-173.411
4243.664	95.568	-173.242
4305.390	95.451	-173.125
4368.013	95.333	-173.035
4431.547	95.218	-172.952
4496.005	95.122	-172.861
4561.401	95.052	-172.758
4627.749	94.998	-172.643
4695.061	94.947	-172.524
4763.352	94.910	-172.412
4832.637	94.888	-172.318
4902.929	94.870	-172.258
4974.244	94.860	-172.240
5046.596	94.871	-172.270
5120.000	94.907	-172.354
5194.472	94.961	-172.494
5270.027	95.013	-172.701
5346.682	95.052	-172.982
5424.451	95.083	-173.342
5503.352	95.116	-173.773
5583.399	95.149	-174.265
5664.612	95.172	-174.810
5747.006	95.177	-175.406
5830.598	95.187	-176.058
5915.406	95.218	-176.787
6001.447	95.268	-177.621
6088.740	95.321	-178.588
6177.303	95.356	-179.714
6267.154	95.375	-181.024
6358.312	95.384	-182.523
6450.796	95.374	-184.195
6544.625	95.332	-185.998
6639.818	95.247	-187.860
6736.397	95.119	-189.680
6834.380	94.954	-191.351
6933.789	94.774	-192.800
7034.643	94.601	-194.013
7136.964	94.454	-195.058
7240.773	94.342	-196.070
7346.093	94.273	-197.200
7452.944	94.251	-198.571
7561.350	94.278	-200.288
7671.332	94.339	-202.436
7782.915	94.401	-205.081
7896.120	94.433	-208.259
8010.971	94.390	-211.952
8127.493	94.212	-216.063
8245.711	93.854	-220.414
8365.647	93.316	-224.750
8487.328	92.617	-228.793
8610.779	91.786	-232.292
8736.026	90.849	-235.050
8863.095	89.824	-236.947
8992.011	88.741	-237.952
9122.803	87.639	-238.102
9255.497	86.556	-237.476
9390.121	85.516	-236.168
9526.704	84.533	-234.279
9665.273	83.607	-231.928
9805.857	82.730	-229.223
9948.487	81.899	-226.226
10093.191	81.120	-222.957
10240.000	80.407	-219.424
10388.944	79.759	-215.627
10540.055	79.147	-211.556
10693.363	78.557	-207.216
10848.902	77.997	-202.623
11006.703	77.484	-197.807
11166.799	77.031	-192.785
11329.224	76.655	-187.549
11494.012	76.362	-182.103
11661.195	76.130	-176.466
11830.812	75.948	-170.641
12002.895	75.836	-164.631
12177.480	75.800	-158.429
12354.606	75.836	-152.067
12534.309	75.946	-145.607
12716.624	76.141	-139.082
12901.592	76.450	-132.577
13089.250	76.921	-126.204
13279.637	77.642	-120.073
13472.794	78.728	-114.364
13668.760	80.255	-109.387
13867.577	82.152	-105.631
14069.285	84.261	-103.897
14273.928	86.383	-105.543
14481.547	88.233	-112.437
14692.186	89.410	-125.404
14905.889	89.598	-141.785
15122.700	88.802	-156.192
15342.664	87.407	-165.086
15565.829	85.969	-168.669
15792.239	84.912	-168.779
16021.942	84.370	-167.036
16254.986	84.284	-164.580
16491.422	84.638	-162.459
16731.295	85.496	-162.144
16974.656	86.828	-166.220
17221.559	88.153	-178.427
17472.053	88.616	-200.056
17726.189	87.581	-224.449
17984.021	85.089	-241.972
18245.605	81.756	-250.236
18510.994	78.346	-252.566
18780.242	75.351	-252.349
19053.408	72.875	-251.423
19330.547	70.775	-250.622
19611.715	68.904	-250.283
19896.975	67.464	-250.366
