* Measurement data measured by REW V5,19
* Source: Input device not selected, no input selected, R, volume: no control
* Format: 256k Log Swept Sine, 1 sweep at -12,0 dBFS  With no timing reference
* Dated: 06.09.2021 17:29:00
* REW Settings:
*  C-weighting compensation: On
*  Target level: 75.0 dB
* Note: ; 
* Measurement: V90 EQ L
* Smoothing: 1/24 octave
* Frequency Step: 1/48 octave
* Start Frequency: 20.3 Hz
*
* Freq(Hz)	SPL(dB)	Phase(degrees)
20.291	91.934	-106.531
20.586	91.953	-106.979
20.885	91.994	-107.832
21.189	92.035	-108.727
21.497	92.071	-109.611
21.810	92.099	-110.501
22.127	92.119	-111.418
22.449	92.132	-112.370
22.776	92.142	-113.356
23.107	92.154	-114.370
23.443	92.170	-115.402
23.784	92.187	-116.437
24.130	92.200	-117.459
24.481	92.207	-118.463
24.837	92.212	-119.452
25.198	92.220	-120.438
25.565	92.236	-121.434
25.937	92.256	-122.444
26.314	92.275	-123.461
26.697	92.285	-124.466
27.085	92.285	-125.441
27.479	92.277	-126.377
27.879	92.271	-127.283
28.284	92.276	-128.185
28.696	92.292	-129.112
29.113	92.305	-130.083
29.537	92.303	-131.091
29.966	92.284	-132.109
30.402	92.261	-133.109
30.844	92.248	-134.079
31.293	92.242	-135.030
31.748	92.236	-135.988
32.210	92.229	-136.969
32.678	92.223	-137.967
33.154	92.216	-138.965
33.636	92.202	-139.944
34.125	92.186	-140.901
34.621	92.172	-141.839
35.125	92.166	-142.767
35.636	92.160	-143.698
36.154	92.145	-144.637
36.680	92.128	-145.578
37.214	92.114	-146.505
37.755	92.099	-147.407
38.304	92.080	-148.299
38.861	92.064	-149.203
39.427	92.050	-150.122
40.000	92.031	-151.033
40.582	92.005	-151.925
41.172	91.978	-152.811
41.771	91.959	-153.700
42.379	91.948	-154.572
42.995	91.935	-155.413
43.620	91.912	-156.262
44.255	91.877	-157.152
44.898	91.843	-158.058
45.552	91.824	-158.968
46.214	91.818	-159.916
46.886	91.805	-160.884
47.568	91.784	-161.845
48.260	91.761	-162.935
48.962	91.710	-164.201
49.674	91.620	-165.287
50.397	91.546	-165.884
51.130	91.542	-166.293
51.874	91.564	-166.955
52.628	91.549	-167.815
53.394	91.505	-168.635
54.170	91.464	-169.398
54.958	91.428	-170.119
55.758	91.395	-170.769
56.569	91.369	-171.410
57.391	91.346	-172.141
58.226	91.308	-172.973
59.073	91.253	-173.832
59.932	91.197	-174.674
60.804	91.152	-175.578
61.688	91.097	-176.593
62.586	91.018	-177.537
63.496	90.938	-178.174
64.420	90.897	-178.582
65.357	90.890	-179.030
66.307	90.884	-179.591
67.272	90.867	179.815
68.250	90.840	179.261
69.243	90.818	178.737
70.250	90.805	178.119
71.272	90.780	177.330
72.309	90.724	176.516
73.360	90.658	175.818
74.427	90.605	175.165
75.510	90.565	174.434
76.608	90.524	173.546
77.723	90.466	172.561
78.853	90.397	171.576
80.000	90.312	170.676
81.164	90.204	170.027
82.344	90.097	169.670
83.542	90.013	169.323
84.757	89.930	168.828
85.990	89.834	168.229
87.241	89.735	167.564
88.510	89.650	166.866
89.797	89.581	166.171
91.103	89.529	165.637
92.428	89.493	165.240
93.773	89.442	164.949
95.137	89.373	164.750
96.520	89.287	164.371
97.924	89.164	163.780
99.349	89.026	163.240
100.794	88.940	162.768
102.260	88.891	162.116
103.747	88.831	161.488
105.256	88.755	161.056
106.787	88.677	160.797
108.340	88.618	160.531
109.916	88.560	159.955
111.515	88.452	159.285
113.137	88.330	158.870
114.783	88.224	158.549
116.452	88.124	158.296
118.146	88.023	158.098
119.865	87.908	157.990
121.608	87.790	157.979
123.377	87.695	158.002
125.171	87.648	157.959
126.992	87.630	157.660
128.839	87.581	157.211
130.713	87.487	156.736
132.615	87.357	156.229
134.543	87.216	155.718
136.500	87.091	155.203
138.486	86.979	154.805
140.500	86.881	154.587
142.544	86.770	154.410
144.617	86.636	154.206
146.721	86.501	153.876
148.855	86.368	153.473
151.020	86.245	153.401
153.217	86.170	153.635
155.445	86.111	153.887
157.706	86.043	154.161
160.000	85.978	154.423
162.327	85.921	154.621
164.688	85.865	154.671
167.084	85.794	154.551
169.514	85.699	154.374
171.980	85.577	154.212
174.481	85.427	154.084
177.019	85.270	154.016
179.594	85.127	154.034
182.206	85.008	154.119
184.856	84.892	154.233
187.545	84.772	154.424
190.273	84.658	154.672
193.041	84.552	154.883
195.849	84.452	155.077
198.697	84.359	155.334
201.587	84.256	155.663
204.520	84.144	156.038
207.494	84.039	156.400
210.512	83.946	156.792
213.574	83.860	157.215
216.681	83.767	157.603
219.833	83.673	158.003
223.030	83.594	158.450
226.274	83.525	158.924
229.565	83.458	159.422
232.905	83.393	159.939
236.292	83.331	160.473
239.729	83.277	161.025
243.216	83.239	161.589
246.754	83.219	162.191
250.343	83.196	162.710
253.984	83.146	163.084
257.678	83.095	163.447
261.426	83.058	163.845
265.229	83.024	164.259
269.087	82.990	164.672
273.001	82.957	165.087
276.972	82.928	165.498
281.000	82.900	165.898
285.088	82.873	166.291
289.234	82.847	166.695
293.441	82.822	167.112
297.710	82.799	167.517
302.040	82.781	167.906
306.433	82.765	168.285
310.890	82.749	168.666
315.412	82.730	169.037
320.000	82.710	169.389
324.655	82.693	169.738
329.377	82.677	170.093
334.168	82.662	170.448
339.028	82.646	170.788
343.959	82.633	171.079
348.962	82.622	171.364
354.038	82.609	171.786
359.188	82.599	172.232
364.412	82.592	172.605
369.713	82.586	172.955
375.090	82.577	173.307
380.546	82.569	173.663
386.081	82.565	174.020
391.697	82.566	174.371
397.395	82.570	174.721
403.175	82.564	175.066
409.039	82.552	175.393
414.989	82.547	175.709
421.025	82.548	176.034
427.149	82.549	176.365
433.362	82.552	176.693
439.665	82.562	177.035
446.060	82.584	177.408
452.548	82.606	177.723
459.131	82.612	177.965
465.809	82.607	178.228
472.584	82.596	178.506
479.458	82.597	178.777
486.432	82.617	179.042
493.507	82.651	179.312
500.686	82.679	179.574
507.968	82.689	179.820
515.357	82.695	-179.931
522.853	82.712	-179.685
530.458	82.745	-179.454
538.174	82.776	-179.230
546.002	82.794	-179.010
553.943	82.797	-178.792
562.001	82.794	-178.566
570.175	82.791	-178.331
578.469	82.788	-178.101
586.883	82.786	-177.889
595.419	82.783	-177.694
604.080	82.774	-177.440
612.866	82.761	-177.120
621.780	82.749	-176.814
630.824	82.736	-176.514
640.000	82.721	-176.202
649.309	82.708	-175.880
658.753	82.701	-175.535
668.335	82.694	-175.178
678.056	82.681	-174.818
687.919	82.673	-174.420
697.925	82.667	-173.979
708.076	82.653	-173.536
718.376	82.640	-173.079
728.825	82.641	-172.584
739.426	82.655	-172.055
750.181	82.676	-171.519
761.093	82.696	-170.980
772.163	82.714	-170.411
783.394	82.734	-169.814
794.789	82.764	-169.208
806.349	82.796	-168.590
818.078	82.821	-167.955
829.977	82.842	-167.304
842.050	82.864	-166.647
854.297	82.902	-165.974
866.724	82.969	-165.305
879.330	83.053	-164.703
892.120	83.141	-164.173
905.097	83.218	-163.665
918.262	83.279	-163.167
931.618	83.319	-162.675
945.169	83.343	-162.126
958.917	83.364	-161.473
972.864	83.407	-160.708
987.015	83.487	-159.885
1001.371	83.595	-159.117
1015.937	83.719	-158.462
1030.714	83.850	-157.894
1045.706	83.984	-157.401
1060.916	84.114	-156.963
1076.347	84.245	-156.566
1092.003	84.377	-156.215
1107.887	84.509	-155.918
1124.001	84.640	-155.664
1140.350	84.772	-155.437
1156.937	84.905	-155.233
1173.765	85.038	-155.070
1190.838	85.170	-154.947
1208.159	85.303	-154.836
1225.732	85.438	-154.734
1243.561	85.573	-154.656
1261.649	85.715	-154.607
1280.000	85.865	-154.586
1298.618	86.019	-154.578
1317.507	86.168	-154.574
1336.670	86.309	-154.590
1356.113	86.446	-154.628
1375.838	86.582	-154.685
1395.850	86.719	-154.767
1416.153	86.859	-154.859
1436.751	87.002	-154.972
1457.649	87.149	-155.114
1478.851	87.298	-155.280
1500.362	87.450	-155.478
1522.185	87.602	-155.711
1544.326	87.756	-155.979
1566.789	87.913	-156.287
1589.578	88.074	-156.644
1612.699	88.239	-157.050
1636.156	88.411	-157.508
1659.955	88.598	-158.023
1684.099	88.803	-158.589
1708.595	89.014	-159.210
1733.447	89.218	-159.891
1758.661	89.409	-160.654
1784.241	89.587	-161.522
1810.193	89.758	-162.515
1836.523	89.922	-163.629
1863.236	90.074	-164.841
1890.338	90.213	-166.141
1917.833	90.338	-167.534
1945.729	90.446	-169.012
1974.030	90.535	-170.559
2002.743	90.605	-172.153
2031.873	90.655	-173.779
2061.428	90.682	-175.427
2091.412	90.685	-177.077
2121.832	90.666	-178.702
2152.695	90.624	179.720
2184.007	90.560	178.208
2215.774	90.475	176.787
2248.003	90.376	175.475
2280.701	90.271	174.288
2313.874	90.158	173.241
2347.530	90.035	172.345
2381.676	89.900	171.601
2416.318	89.753	171.004
2451.464	89.597	170.536
2487.122	89.443	170.188
2523.298	89.302	169.958
2560.000	89.171	169.847
2597.236	89.036	169.856
2635.014	88.901	169.992
2673.341	88.775	170.243
2712.226	88.668	170.594
2751.676	88.583	171.044
2791.700	88.520	171.601
2832.306	88.478	172.250
2873.503	88.462	172.975
2915.299	88.474	173.762
2957.703	88.518	174.580
3000.724	88.596	175.393
3044.370	88.709	176.155
3088.652	88.856	176.795
3133.577	89.036	177.225
3179.156	89.249	177.373
3225.398	89.487	177.222
3272.312	89.742	176.780
3319.909	90.010	176.015
3368.198	90.286	174.861
3417.190	90.559	173.295
3466.894	90.808	171.349
3517.321	91.010	169.056
3568.482	91.160	166.410
3620.387	91.252	163.381
3673.046	91.269	159.980
3726.472	91.187	156.289
3780.675	90.986	152.483
3835.666	90.660	148.797
3891.457	90.217	145.481
3948.060	89.663	142.783
4005.486	89.003	140.925
4063.747	88.251	140.098
4122.855	87.435	140.455
4182.824	86.592	142.102
4243.664	85.776	145.082
4305.390	85.062	149.331
4368.013	84.532	154.606
4431.547	84.255	160.446
4496.005	84.279	166.221
4561.401	84.584	171.252
4627.749	85.066	175.013
4695.061	85.608	177.271
4763.352	86.124	178.113
4832.637	86.551	177.862
4902.929	86.851	176.937
4974.244	87.030	175.732
5046.596	87.118	174.547
5120.000	87.144	173.571
5194.472	87.131	172.886
5270.027	87.086	172.495
5346.682	87.018	172.350
5424.451	86.947	172.370
5503.352	86.884	172.476
5583.399	86.828	172.619
5664.612	86.758	172.778
5747.006	86.661	172.954
5830.598	86.551	173.166
5915.406	86.441	173.442
6001.447	86.324	173.817
6088.740	86.186	174.346
6177.303	86.013	175.096
6267.154	85.814	176.148
6358.312	85.613	177.587
6450.796	85.429	179.470
6544.625	85.278	-178.193
6639.818	85.179	-175.436
6736.397	85.152	-172.319
6834.380	85.214	-168.932
6933.789	85.385	-165.365
7034.643	85.684	-161.720
7136.964	86.124	-158.152
7240.773	86.721	-154.851
7346.093	87.503	-152.037
7452.944	88.502	-150.045
7561.350	89.733	-149.389
7671.332	91.148	-150.834
7782.915	92.604	-155.425
7896.120	93.837	-164.081
8010.971	94.525	-176.508
8127.493	94.433	169.687
8245.711	93.565	157.910
8365.647	92.163	150.218
8487.328	90.556	146.589
8610.779	88.999	145.989
8736.026	87.613	147.367
8863.095	86.418	150.010
8992.011	85.405	153.464
9122.803	84.562	157.462
9255.497	83.877	161.865
9390.121	83.347	166.553
9526.704	82.967	171.395
9665.273	82.730	176.275
9805.857	82.627	-178.924
9948.487	82.660	-174.344
10093.191	82.839	-170.133
10240.000	83.172	-166.474
10388.944	83.632	-163.571
10540.055	84.165	-161.583
10693.363	84.728	-160.634
10848.902	85.306	-160.852
11006.703	85.871	-162.425
11166.799	86.370	-165.561
11329.224	86.710	-170.265
11494.012	86.778	-176.025
11661.195	86.504	178.262
11830.812	85.942	173.539
12002.895	85.184	170.058
12177.480	84.270	168.100
12354.606	83.263	167.938
12534.309	82.255	169.406
12716.624	81.313	172.071
12901.592	80.469	175.508
13089.250	79.746	179.416
13279.637	79.179	-176.396
13472.794	78.826	-172.072
13668.760	78.732	-167.696
13867.577	78.821	-163.203
14069.285	78.958	-158.332
14273.928	79.073	-152.746
14481.547	79.268	-146.427
14692.186	79.773	-140.197
14905.889	80.707	-135.988
15122.700	81.839	-136.127
15342.664	82.740	-141.303
15565.829	83.143	-149.426
15792.239	83.079	-157.176
16021.942	82.808	-162.598
16254.986	82.601	-166.030
16491.422	82.639	-169.183
16731.295	82.966	-174.473
16974.656	83.379	175.326
17221.559	83.362	158.887
17472.053	82.370	139.378
17726.189	80.230	123.182
17984.021	77.201	114.034
18245.605	73.731	112.276
18510.994	70.319	118.714
18780.242	68.295	131.121
19053.408	68.499	136.513
19330.547	68.498	130.048
19611.715	67.551	121.967
19896.975	66.504	117.342
