* Measurement data measured by REW V5,19
* Source: Input device not selected, no input selected, R, volume: no control
* Format: 256k Log Swept Sine, 1 sweep at -12,0 dBFS  With no timing reference
* Dated: 06.09.2021 16:55:21
* REW Settings:
*  C-weighting compensation: On
*  Target level: 75.0 dB
* Note: ; 
* Measurement: V90 R
* Smoothing: 1/24 octave
* Frequency Step: 1/48 octave
* Start Frequency: 20.3 Hz
*
* Freq(Hz)	SPL(dB)	Phase(degrees)
20.291	92.727	-91.723
20.586	92.776	-92.206
20.885	92.877	-93.141
21.189	92.970	-94.161
21.497	93.046	-95.192
21.810	93.105	-96.218
22.127	93.151	-97.239
22.449	93.189	-98.259
22.776	93.226	-99.285
23.107	93.267	-100.330
23.443	93.314	-101.398
23.784	93.364	-102.487
24.130	93.408	-103.585
24.481	93.444	-104.683
24.837	93.474	-105.774
25.198	93.503	-106.857
25.565	93.538	-107.931
25.937	93.577	-108.999
26.314	93.618	-110.063
26.697	93.655	-111.127
27.085	93.683	-112.191
27.479	93.702	-113.251
27.879	93.719	-114.300
28.284	93.740	-115.331
28.696	93.768	-116.347
29.113	93.796	-117.356
29.537	93.814	-118.372
29.966	93.821	-119.400
30.402	93.829	-120.435
30.844	93.844	-121.469
31.293	93.862	-122.496
31.748	93.876	-123.516
32.210	93.886	-124.536
32.678	93.898	-125.560
33.154	93.910	-126.583
33.636	93.914	-127.596
34.125	93.915	-128.591
34.621	93.918	-129.565
35.125	93.929	-130.525
35.636	93.940	-131.483
36.154	93.947	-132.446
36.680	93.956	-133.416
37.214	93.974	-134.398
37.755	93.992	-135.406
38.304	94.003	-136.445
38.861	94.009	-137.498
39.427	94.012	-138.544
40.000	94.011	-139.571
40.582	94.002	-140.581
41.172	93.988	-141.582
41.771	93.982	-142.576
42.379	93.984	-143.552
42.995	93.983	-144.497
43.620	93.976	-145.433
44.255	93.963	-146.411
44.898	93.951	-147.427
45.552	93.952	-148.419
46.214	93.969	-149.376
46.886	93.986	-150.336
47.568	93.987	-151.262
48.260	93.987	-152.133
48.962	94.001	-153.133
49.674	94.000	-154.349
50.397	93.954	-155.475
51.130	93.895	-156.235
51.874	93.859	-156.837
52.628	93.827	-157.579
53.394	93.780	-158.421
54.170	93.743	-159.252
54.958	93.730	-160.119
55.758	93.725	-161.056
56.569	93.714	-162.003
57.391	93.700	-162.909
58.226	93.679	-163.792
59.073	93.646	-164.668
59.932	93.598	-165.481
60.804	93.548	-166.178
61.688	93.510	-166.827
62.586	93.486	-167.567
63.496	93.458	-168.409
64.420	93.421	-169.237
65.357	93.384	-170.021
66.307	93.347	-170.772
67.272	93.316	-171.486
68.250	93.293	-172.207
69.243	93.270	-172.955
70.250	93.242	-173.694
71.272	93.212	-174.398
72.309	93.185	-175.092
73.360	93.161	-175.823
74.427	93.132	-176.595
75.510	93.093	-177.387
76.608	93.040	-178.165
77.723	92.979	-178.916
78.853	92.915	-179.647
80.000	92.856	179.659
81.164	92.796	178.988
82.344	92.730	178.326
83.542	92.667	177.684
84.757	92.610	177.111
85.990	92.568	176.586
87.241	92.524	175.984
88.510	92.457	175.355
89.797	92.377	174.844
91.103	92.321	174.335
92.428	92.276	173.632
93.773	92.232	172.892
95.137	92.201	172.132
96.520	92.167	171.362
97.924	92.118	170.699
99.349	92.055	170.132
100.794	91.970	169.654
102.260	91.881	169.275
103.747	91.803	168.847
105.256	91.727	168.329
106.787	91.649	167.787
108.340	91.569	167.270
109.916	91.486	166.815
111.515	91.405	166.405
113.137	91.330	165.980
114.783	91.251	165.527
116.452	91.162	165.139
118.146	91.064	164.819
119.865	90.949	164.530
121.608	90.821	164.259
123.377	90.694	164.055
125.171	90.586	163.964
126.992	90.492	163.992
128.839	90.402	164.171
130.713	90.320	164.511
132.615	90.275	164.949
134.543	90.283	165.272
136.500	90.322	165.265
138.486	90.362	164.876
140.500	90.388	164.214
142.544	90.391	163.409
144.617	90.362	162.595
146.721	90.296	161.842
148.855	90.211	161.197
151.020	90.149	160.627
153.217	90.114	160.037
155.445	90.084	159.523
157.706	90.037	159.106
160.000	89.963	158.730
162.327	89.875	158.374
164.688	89.784	158.051
167.084	89.688	157.776
169.514	89.579	157.516
171.980	89.452	157.267
174.481	89.317	157.045
177.019	89.185	156.847
179.594	89.068	156.654
182.206	88.965	156.462
184.856	88.871	156.283
187.545	88.781	156.120
190.273	88.687	155.984
193.041	88.594	155.881
195.849	88.508	155.770
198.697	88.424	155.650
201.587	88.327	155.553
204.520	88.222	155.517
207.494	88.121	155.516
210.512	88.023	155.543
213.574	87.926	155.603
216.681	87.837	155.684
219.833	87.763	155.769
223.030	87.695	155.841
226.274	87.629	155.878
229.565	87.561	155.868
232.905	87.488	155.821
236.292	87.411	155.747
239.729	87.330	155.680
243.216	87.242	155.683
246.754	87.140	155.775
250.343	87.040	155.872
253.984	86.962	155.861
257.678	86.884	155.864
261.426	86.797	155.944
265.229	86.711	156.053
269.087	86.626	156.176
273.001	86.540	156.293
276.972	86.456	156.407
281.000	86.373	156.549
285.088	86.291	156.721
289.234	86.206	156.897
293.441	86.119	157.083
297.710	86.032	157.298
302.040	85.946	157.502
306.433	85.862	157.694
310.890	85.778	157.918
315.412	85.696	158.168
320.000	85.616	158.432
324.655	85.535	158.708
329.377	85.456	158.987
334.168	85.376	159.276
339.028	85.294	159.572
343.959	85.211	159.848
348.962	85.128	160.127
354.038	85.054	160.487
359.188	84.984	160.874
364.412	84.912	161.234
369.713	84.841	161.601
375.090	84.767	161.989
380.546	84.693	162.386
386.081	84.622	162.782
391.697	84.554	163.209
397.395	84.487	163.678
403.175	84.415	164.125
409.039	84.341	164.558
414.989	84.271	165.017
421.025	84.205	165.487
427.149	84.139	165.964
433.362	84.073	166.454
439.665	84.005	166.960
446.060	83.938	167.485
452.548	83.892	168.012
459.131	83.861	168.552
465.809	83.807	169.124
472.584	83.737	169.704
479.458	83.677	170.278
486.432	83.636	170.850
493.507	83.608	171.421
500.686	83.578	172.029
507.968	83.540	172.697
515.357	83.498	173.361
522.853	83.466	174.011
530.458	83.450	174.668
538.174	83.436	175.334
546.002	83.410	176.023
553.943	83.375	176.737
562.001	83.339	177.458
570.175	83.306	178.190
578.469	83.276	178.935
586.883	83.251	179.676
595.419	83.235	-179.600
604.080	83.212	-178.844
612.866	83.183	-178.029
621.780	83.160	-177.201
630.824	83.144	-176.379
640.000	83.133	-175.564
649.309	83.126	-174.740
658.753	83.117	-173.890
668.335	83.110	-173.025
678.056	83.108	-172.158
687.919	83.107	-171.292
697.925	83.109	-170.436
708.076	83.119	-169.519
718.376	83.138	-168.558
728.825	83.166	-167.615
739.426	83.204	-166.672
750.181	83.250	-165.715
761.093	83.302	-164.770
772.163	83.350	-163.824
783.394	83.398	-162.852
794.789	83.454	-161.850
806.349	83.516	-160.852
818.078	83.576	-159.888
829.977	83.634	-158.927
842.050	83.695	-157.963
854.297	83.760	-157.005
866.724	83.828	-156.040
879.330	83.903	-155.048
892.120	83.986	-153.931
905.097	84.090	-152.598
918.262	84.245	-151.226
931.618	84.427	-150.183
945.169	84.584	-149.494
958.917	84.717	-148.923
972.864	84.847	-148.322
987.015	84.985	-147.686
1001.371	85.131	-147.042
1015.937	85.283	-146.418
1030.714	85.439	-145.851
1045.706	85.599	-145.346
1060.916	85.766	-144.912
1076.347	85.933	-144.580
1092.003	86.093	-144.367
1107.887	86.234	-144.266
1124.001	86.344	-144.242
1140.350	86.409	-144.120
1156.937	86.451	-143.627
1173.765	86.520	-142.698
1190.838	86.656	-141.604
1208.159	86.848	-140.648
1225.732	87.062	-139.944
1243.561	87.282	-139.461
1261.649	87.501	-139.111
1280.000	87.721	-138.842
1298.618	87.940	-138.630
1317.507	88.154	-138.441
1336.670	88.358	-138.272
1356.113	88.555	-138.127
1375.838	88.752	-138.007
1395.850	88.950	-137.917
1416.153	89.149	-137.850
1436.751	89.351	-137.803
1457.649	89.555	-137.786
1478.851	89.763	-137.806
1500.362	89.974	-137.862
1522.185	90.189	-137.948
1544.326	90.407	-138.074
1566.789	90.630	-138.246
1589.578	90.857	-138.470
1612.699	91.087	-138.747
1636.156	91.324	-139.080
1659.955	91.580	-139.484
1684.099	91.857	-139.961
1708.595	92.137	-140.515
1733.447	92.409	-141.149
1758.661	92.665	-141.866
1784.241	92.911	-142.667
1810.193	93.151	-143.546
1836.523	93.391	-144.518
1863.236	93.631	-145.606
1890.338	93.868	-146.832
1917.833	94.097	-148.216
1945.729	94.311	-149.746
1974.030	94.507	-151.398
2002.743	94.682	-153.146
2031.873	94.834	-154.975
2061.428	94.963	-156.867
2091.412	95.067	-158.803
2121.832	95.146	-160.760
2152.695	95.198	-162.707
2184.007	95.224	-164.621
2215.774	95.228	-166.482
2248.003	95.215	-168.267
2280.701	95.190	-169.964
2313.874	95.154	-171.561
2347.530	95.103	-173.050
2381.676	95.031	-174.424
2416.318	94.936	-175.671
2451.464	94.822	-176.780
2487.122	94.702	-177.745
2523.298	94.591	-178.570
2560.000	94.486	-179.258
2597.236	94.376	-179.815
2635.014	94.262	179.751
2673.341	94.155	179.427
2712.226	94.063	179.207
2751.676	93.991	179.080
2791.700	93.935	179.033
2832.306	93.894	179.054
2873.503	93.869	179.138
2915.299	93.860	179.283
2957.703	93.869	179.482
3000.724	93.898	179.736
3044.370	93.947	-179.961
3088.652	94.022	-179.624
3133.577	94.135	-179.310
3179.156	94.303	-179.135
3225.398	94.523	-179.235
3272.312	94.779	-179.714
3319.909	95.051	179.382
3368.198	95.325	178.043
3417.190	95.594	176.270
3466.894	95.834	174.073
3517.321	96.011	171.497
3568.482	96.112	168.643
3620.387	96.138	165.637
3673.046	96.095	162.573
3726.472	95.986	159.498
3780.675	95.811	156.451
3835.666	95.570	153.505
3891.457	95.267	150.776
3948.060	94.901	148.408
4005.486	94.466	146.539
4063.747	93.965	145.282
4122.855	93.411	144.722
4182.824	92.824	144.921
4243.664	92.233	145.922
4305.390	91.681	147.713
4368.013	91.217	150.195
4431.547	90.886	153.161
4496.005	90.734	156.278
4561.401	90.774	159.110
4627.749	90.959	161.221
4695.061	91.213	162.295
4763.352	91.462	162.242
4832.637	91.635	161.230
4902.929	91.680	159.627
4974.244	91.589	157.867
5046.596	91.388	156.323
5120.000	91.114	155.220
5194.472	90.795	154.650
5270.027	90.444	154.617
5346.682	90.071	155.084
5424.451	89.699	155.998
5503.352	89.348	157.297
5583.399	89.029	158.926
5664.612	88.735	160.835
5747.006	88.460	162.982
5830.598	88.222	165.327
5915.406	88.040	167.836
6001.447	87.911	170.489
6088.740	87.824	173.272
6177.303	87.766	176.172
6267.154	87.745	179.173
6358.312	87.779	-177.743
6450.796	87.872	-174.600
6544.625	88.025	-171.430
6639.818	88.239	-168.272
6736.397	88.519	-165.156
6834.380	88.875	-162.117
6933.789	89.321	-159.205
7034.643	89.872	-156.496
7136.964	90.537	-154.114
7240.773	91.334	-152.242
7346.093	92.291	-151.154
7452.944	93.430	-151.284
7561.350	94.728	-153.308
7671.332	96.062	-158.120
7782.915	97.202	-166.479
7896.120	97.879	-178.167
8010.971	97.893	168.719
8127.493	97.214	157.043
8245.711	96.005	148.749
8365.647	94.531	144.077
8487.328	93.026	142.315
8610.779	91.628	142.619
8736.026	90.386	144.343
8863.095	89.294	147.030
8992.011	88.338	150.340
9122.803	87.505	154.137
9255.497	86.799	158.368
9390.121	86.229	162.917
9526.704	85.792	167.690
9665.273	85.486	172.592
9805.857	85.303	177.515
9948.487	85.246	-177.673
10093.191	85.328	-173.102
10240.000	85.562	-168.920
10388.944	85.930	-165.290
10540.055	86.383	-162.336
10693.363	86.901	-160.155
10848.902	87.487	-158.921
11006.703	88.126	-158.910
11166.799	88.781	-160.429
11329.224	89.383	-163.793
11494.012	89.808	-169.123
11661.195	89.892	-175.951
11830.812	89.524	177.014
12002.895	88.719	171.543
12177.480	87.631	168.830
12354.606	86.474	168.730
12534.309	85.393	170.285
12716.624	84.394	172.848
12901.592	83.456	176.372
13089.250	82.624	-179.192
13279.637	81.979	-174.088
13472.794	81.606	-168.594
13668.760	81.568	-162.945
13867.577	81.789	-157.283
14069.285	82.108	-151.506
14273.928	82.428	-145.269
14481.547	82.884	-138.297
14692.186	83.815	-131.417
14905.889	85.313	-127.616
15122.700	86.865	-130.375
15342.664	87.875	-139.671
15565.829	88.139	-151.560
15792.239	87.831	-161.823
16021.942	87.320	-168.917
16254.986	86.913	-173.977
16491.422	86.749	-179.464
16731.295	86.721	171.698
16974.656	86.432	157.482
17221.559	85.331	139.787
17472.053	83.068	125.459
17726.189	79.742	121.654
17984.021	76.203	128.743
18245.605	74.255	135.829
18510.994	73.437	134.686
18780.242	71.998	132.034
19053.408	70.081	135.970
19330.547	69.292	143.404
19611.715	69.699	142.190
19896.975	69.700	134.410
