* Measurement data measured by REW V5,19
* Source: Input device not selected, no input selected, R, volume: no control
* Format: 256k Log Swept Sine, 4 sweeps at -12,0 dBFS  With no timing reference
* Dated: 31.08.2021 18:21:17
* REW Settings:
*  C-weighting compensation: On
*  Target level: 75.0 dB
* Note: ; 
* Measurement: VK4 L
* Smoothing: 1/24 octave
* Frequency Step: 1/48 octave
* Start Frequency: 20.3 Hz
*
* Freq(Hz)	SPL(dB)	Phase(degrees)
20.291	88.030	-130.851
20.586	88.070	-131.403
20.885	88.152	-132.415
21.189	88.224	-133.376
21.497	88.285	-134.237
21.810	88.341	-135.043
22.127	88.396	-135.823
22.449	88.451	-136.583
22.776	88.504	-137.321
23.107	88.556	-138.044
23.443	88.605	-138.761
23.784	88.653	-139.477
24.130	88.697	-140.198
24.481	88.737	-140.928
24.837	88.771	-141.667
25.198	88.799	-142.417
25.565	88.822	-143.174
25.937	88.841	-143.936
26.314	88.855	-144.701
26.697	88.864	-145.465
27.085	88.868	-146.228
27.479	88.868	-146.991
27.879	88.865	-147.754
28.284	88.861	-148.518
28.696	88.857	-149.283
29.113	88.855	-150.048
29.537	88.854	-150.813
29.966	88.856	-151.575
30.402	88.861	-152.334
30.844	88.871	-153.090
31.293	88.880	-153.843
31.748	88.884	-154.595
32.210	88.879	-155.348
32.678	88.869	-156.101
33.154	88.858	-156.854
33.636	88.848	-157.604
34.125	88.837	-158.351
34.621	88.826	-159.093
35.125	88.813	-159.829
35.636	88.799	-160.558
36.154	88.785	-161.282
36.680	88.775	-162.000
37.214	88.767	-162.714
37.755	88.754	-163.423
38.304	88.735	-164.130
38.861	88.708	-164.834
39.427	88.678	-165.534
40.000	88.648	-166.232
40.582	88.622	-166.925
41.172	88.600	-167.613
41.771	88.581	-168.292
42.379	88.562	-168.961
42.995	88.540	-169.619
43.620	88.515	-170.267
44.255	88.485	-170.908
44.898	88.454	-171.548
45.552	88.424	-172.184
46.214	88.397	-172.814
46.886	88.375	-173.435
47.568	88.357	-174.045
48.260	88.334	-174.650
48.962	88.295	-175.258
49.674	88.239	-175.876
50.397	88.181	-176.495
51.130	88.131	-177.098
51.874	88.089	-177.675
52.628	88.049	-178.230
53.394	88.007	-178.776
54.170	87.964	-179.318
54.958	87.925	-179.856
55.758	87.888	179.610
56.569	87.845	179.082
57.391	87.795	178.562
58.226	87.739	178.050
59.073	87.684	177.545
59.932	87.633	177.047
60.804	87.582	176.556
61.688	87.530	176.073
62.586	87.479	175.599
63.496	87.433	175.131
64.420	87.389	174.669
65.357	87.340	174.217
66.307	87.286	173.777
67.272	87.233	173.348
68.250	87.179	172.924
69.243	87.119	172.497
70.250	87.056	172.066
71.272	86.992	171.642
72.309	86.928	171.235
73.360	86.868	170.847
74.427	86.813	170.473
75.510	86.760	170.104
76.608	86.702	169.732
77.723	86.638	169.366
78.853	86.570	169.017
80.000	86.501	168.685
81.164	86.435	168.363
82.344	86.371	168.044
83.542	86.309	167.726
84.757	86.248	167.406
85.990	86.183	167.086
87.241	86.109	166.780
88.510	86.029	166.502
89.797	85.949	166.231
91.103	85.877	165.953
92.428	85.808	165.692
93.773	85.741	165.480
95.137	85.681	165.311
96.520	85.627	165.136
97.924	85.565	164.938
99.349	85.494	164.755
100.794	85.426	164.593
102.260	85.367	164.416
103.747	85.316	164.221
105.256	85.265	164.028
106.787	85.206	163.844
108.340	85.134	163.673
109.916	85.055	163.521
111.515	84.982	163.394
113.137	84.918	163.271
114.783	84.855	163.135
116.452	84.786	162.995
118.146	84.710	162.878
119.865	84.632	162.790
121.608	84.558	162.722
123.377	84.493	162.665
125.171	84.433	162.597
126.992	84.369	162.513
128.839	84.295	162.438
130.713	84.215	162.381
132.615	84.138	162.332
134.543	84.069	162.287
136.500	84.001	162.242
138.486	83.926	162.203
140.500	83.846	162.178
142.544	83.771	162.169
144.617	83.701	162.177
146.721	83.628	162.206
148.855	83.552	162.251
151.020	83.482	162.299
153.217	83.417	162.364
155.445	83.353	162.472
157.706	83.285	162.623
160.000	83.205	162.828
162.327	83.122	163.119
164.688	83.042	163.501
167.084	82.962	164.002
169.514	82.880	164.641
171.980	82.804	165.391
174.481	82.755	166.178
177.019	82.747	166.833
179.594	82.775	167.212
182.206	82.834	167.287
184.856	82.897	167.105
187.545	82.931	166.828
190.273	82.936	166.561
193.041	82.926	166.281
195.849	82.901	166.004
198.697	82.855	165.766
201.587	82.792	165.607
204.520	82.730	165.540
207.494	82.675	165.524
210.512	82.619	165.532
213.574	82.559	165.575
216.681	82.499	165.649
219.833	82.437	165.742
223.030	82.375	165.852
226.274	82.317	165.971
229.565	82.260	166.105
232.905	82.203	166.255
236.292	82.146	166.417
239.729	82.089	166.599
243.216	82.035	166.810
246.754	81.984	167.054
250.343	81.934	167.277
253.984	81.884	167.442
257.678	81.833	167.615
261.426	81.785	167.819
265.229	81.740	168.042
269.087	81.694	168.277
273.001	81.650	168.518
276.972	81.609	168.761
281.000	81.568	169.003
285.088	81.525	169.247
289.234	81.481	169.501
293.441	81.439	169.767
297.710	81.400	170.045
302.040	81.362	170.329
306.433	81.325	170.614
310.890	81.287	170.900
315.412	81.250	171.196
320.000	81.217	171.499
324.655	81.184	171.801
329.377	81.149	172.104
334.168	81.118	172.418
339.028	81.093	172.740
343.959	81.070	173.072
348.962	81.044	173.393
354.038	81.013	173.685
359.188	80.980	173.996
364.412	80.947	174.329
369.713	80.911	174.671
375.090	80.875	175.028
380.546	80.845	175.400
386.081	80.824	175.785
391.697	80.808	176.186
397.395	80.794	176.594
403.175	80.782	176.995
409.039	80.772	177.381
414.989	80.763	177.745
421.025	80.754	178.085
427.149	80.744	178.398
433.362	80.733	178.691
439.665	80.721	178.977
446.060	80.711	179.270
452.548	80.704	179.596
459.131	80.700	179.945
465.809	80.686	-179.692
472.584	80.666	-179.320
479.458	80.650	-178.940
486.432	80.639	-178.551
493.507	80.630	-178.154
500.686	80.620	-177.752
507.968	80.611	-177.343
515.357	80.600	-176.929
522.853	80.589	-176.507
530.458	80.582	-176.076
538.174	80.579	-175.637
546.002	80.573	-175.194
553.943	80.563	-174.745
562.001	80.556	-174.288
570.175	80.557	-173.824
578.469	80.562	-173.349
586.883	80.564	-172.856
595.419	80.558	-172.350
604.080	80.553	-171.858
612.866	80.558	-171.376
621.780	80.570	-170.878
630.824	80.582	-170.364
640.000	80.593	-169.835
649.309	80.606	-169.295
658.753	80.621	-168.741
668.335	80.636	-168.177
678.056	80.650	-167.606
687.919	80.663	-167.037
697.925	80.680	-166.464
708.076	80.708	-165.853
718.376	80.740	-165.225
728.825	80.771	-164.596
739.426	80.802	-163.963
750.181	80.838	-163.324
761.093	80.875	-162.678
772.163	80.910	-162.030
783.394	80.946	-161.381
794.789	80.990	-160.724
806.349	81.041	-160.030
818.078	81.093	-159.302
829.977	81.146	-158.580
842.050	81.205	-157.899
854.297	81.272	-157.274
866.724	81.339	-156.693
879.330	81.399	-156.117
892.120	81.456	-155.496
905.097	81.515	-154.814
918.262	81.580	-154.096
931.618	81.654	-153.382
945.169	81.736	-152.699
958.917	81.828	-152.046
972.864	81.927	-151.423
987.015	82.034	-150.841
1001.371	82.144	-150.303
1015.937	82.255	-149.805
1030.714	82.367	-149.353
1045.706	82.480	-148.948
1060.916	82.592	-148.570
1076.347	82.704	-148.227
1092.003	82.817	-147.929
1107.887	82.933	-147.671
1124.001	83.050	-147.454
1140.350	83.168	-147.276
1156.937	83.286	-147.124
1173.765	83.404	-147.000
1190.838	83.522	-146.906
1208.159	83.640	-146.831
1225.732	83.759	-146.772
1243.561	83.874	-146.728
1261.649	83.987	-146.701
1280.000	84.095	-146.686
1298.618	84.200	-146.678
1317.507	84.305	-146.674
1336.670	84.409	-146.674
1356.113	84.517	-146.677
1375.838	84.629	-146.685
1395.850	84.733	-146.697
1416.153	84.827	-146.695
1436.751	84.916	-146.687
1457.649	85.004	-146.681
1478.851	85.091	-146.674
1500.362	85.177	-146.668
1522.185	85.263	-146.666
1544.326	85.348	-146.665
1566.789	85.432	-146.664
1589.578	85.522	-146.663
1612.699	85.621	-146.667
1636.156	85.733	-146.674
1659.955	85.856	-146.684
1684.099	85.980	-146.702
1708.595	86.099	-146.728
1733.447	86.211	-146.762
1758.661	86.322	-146.806
1784.241	86.433	-146.859
1810.193	86.544	-146.925
1836.523	86.658	-147.005
1863.236	86.775	-147.098
1890.338	86.892	-147.206
1917.833	87.005	-147.328
1945.729	87.112	-147.465
1974.030	87.219	-147.614
2002.743	87.326	-147.778
2031.873	87.431	-147.958
2061.428	87.532	-148.152
2091.412	87.631	-148.360
2121.832	87.732	-148.583
2152.695	87.830	-148.820
2184.007	87.923	-149.073
2215.774	88.013	-149.339
2248.003	88.102	-149.620
2280.701	88.189	-149.914
2313.874	88.276	-150.219
2347.530	88.360	-150.533
2381.676	88.440	-150.859
2416.318	88.513	-151.196
2451.464	88.583	-151.543
2487.122	88.652	-151.895
2523.298	88.717	-152.252
2560.000	88.779	-152.614
2597.236	88.838	-152.980
2635.014	88.892	-153.349
2673.341	88.944	-153.717
2712.226	88.998	-154.082
2751.676	89.049	-154.444
2791.700	89.092	-154.804
2832.306	89.131	-155.162
2873.503	89.165	-155.522
2915.299	89.197	-155.889
2957.703	89.229	-156.262
3000.724	89.263	-156.640
3044.370	89.299	-157.024
3088.652	89.338	-157.410
3133.577	89.378	-157.799
3179.156	89.420	-158.194
3225.398	89.463	-158.600
3272.312	89.511	-159.021
3319.909	89.565	-159.459
3368.198	89.628	-159.915
3417.190	89.704	-160.390
3466.894	89.791	-160.887
3517.321	89.878	-161.411
3568.482	89.962	-161.965
3620.387	90.041	-162.554
3673.046	90.116	-163.181
3726.472	90.189	-163.848
3780.675	90.262	-164.559
3835.666	90.338	-165.317
3891.457	90.416	-166.123
3948.060	90.498	-166.979
4005.486	90.573	-167.882
4063.747	90.619	-168.831
4122.855	90.625	-169.824
4182.824	90.588	-170.857
4243.664	90.511	-171.923
4305.390	90.405	-173.013
4368.013	90.280	-174.113
4431.547	90.142	-175.213
4496.005	89.991	-176.298
4561.401	89.825	-177.352
4627.749	89.649	-178.355
4695.061	89.463	-179.287
4763.352	89.270	179.868
4832.637	89.075	179.125
4902.929	88.879	178.493
4974.244	88.683	177.974
5046.596	88.486	177.573
5120.000	88.287	177.292
5194.472	88.085	177.139
5270.027	87.876	177.127
5346.682	87.658	177.270
5424.451	87.434	177.578
5503.352	87.207	178.051
5583.399	86.982	178.690
5664.612	86.764	179.487
5747.006	86.559	-179.575
5830.598	86.376	-178.515
5915.406	86.223	-177.355
6001.447	86.092	-176.108
6088.740	85.973	-174.777
6177.303	85.868	-173.350
6267.154	85.780	-171.792
6358.312	85.719	-170.073
6450.796	85.699	-168.189
6544.625	85.734	-166.173
6639.818	85.831	-164.080
6736.397	86.000	-161.953
6834.380	86.258	-159.813
6933.789	86.631	-157.721
7034.643	87.125	-155.903
7136.964	87.720	-154.586
7240.773	88.407	-153.773
7346.093	89.225	-153.511
7452.944	90.222	-154.113
7561.350	91.414	-156.157
7671.332	92.743	-160.479
7782.915	94.024	-168.084
7896.120	94.972	-179.559
8010.971	95.308	165.992
8127.493	94.885	151.301
8245.711	93.777	139.302
8365.647	92.238	131.233
8487.328	90.567	126.651
8610.779	88.973	124.533
8736.026	87.533	123.979
8863.095	86.245	124.367
8992.011	85.099	125.281
9122.803	84.084	126.457
9255.497	83.187	127.720
9390.121	82.379	128.946
9526.704	81.638	130.044
9665.273	80.947	130.959
9805.857	80.281	131.664
9948.487	79.616	132.127
10093.191	78.928	132.317
10240.000	78.190	132.355
10388.944	77.398	132.534
10540.055	76.556	133.084
10693.363	75.646	134.140
10848.902	74.652	135.815
11006.703	73.597	138.212
11166.799	72.527	141.417
11329.224	71.493	145.515
11494.012	70.555	150.558
11661.195	69.758	156.468
11830.812	69.136	162.900
12002.895	68.714	169.253
12177.480	68.480	174.879
12354.606	68.332	179.508
12534.309	68.125	-176.488
12716.624	67.793	-172.438
12901.592	67.375	-167.822
13089.250	66.950	-162.450
13279.637	66.608	-156.379
13472.794	66.499	-149.735
13668.760	66.793	-142.666
13867.577	67.482	-135.356
14069.285	68.320	-127.968
14273.928	69.111	-120.608
14481.547	69.849	-113.401
14692.186	70.659	-106.472
14905.889	71.711	-100.020
15122.700	73.155	-94.507
15342.664	75.130	-90.790
15565.829	77.641	-90.283
15792.239	80.330	-95.130
16021.942	82.537	-107.370
16254.986	83.675	-125.845
16491.422	83.590	-144.703
16731.295	82.686	-158.680
16974.656	81.689	-167.838
17221.559	81.133	-175.676
17472.053	80.954	174.016
17726.189	80.643	159.250
17984.021	79.655	141.791
18245.605	77.766	126.336
18510.994	75.203	116.284
18780.242	72.420	112.128
19053.408	69.884	114.033
19330.547	68.640	121.015
19611.715	69.558	124.438
19896.975	70.735	118.731
